id,attr_time,attr_x,attr_y,attr_z
1,1436607529516,-45.381,-15.681,5.767
2,1436607529532,-45.381,-15.681,5.767
3,1436607529552,-45.381,-15.681,5.767
4,1436607529574,-45.381,-15.681,5.767
5,1436607529593,-45.381,-15.681,5.767
6,1436607529614,-45.381,-15.681,5.767
7,1436607529632,-45.381,-15.681,5.767
8,1436607529654,-45.381,-15.681,5.767
9,1436607529672,-45.381,-15.681,5.767
10,1436607529695,-45.381,-15.681,5.767
11,1436607529715,-45.381,-15.681,5.767
12,1436607529732,-45.381,-15.681,5.767
13,1436607529753,-45.381,-15.681,5.767
14,1436607529775,-45.381,-15.681,5.767
15,1436607529795,-45.381,-15.681,5.767
16,1436607529816,-45.381,-15.681,5.767
17,1436607529833,-45.381,-15.681,5.767
18,1436607529855,-45.381,-15.681,5.767
19,1436607529873,-45.381,-15.681,5.767
20,1436607529893,-45.381,-15.681,5.767
21,1436607529915,-45.381,-15.681,5.767
22,1436607529935,-45.381,-15.681,5.767
23,1436607529955,-45.381,-15.681,5.767
24,1436607529981,-45.381,-15.681,5.767
25,1436607529997,-45.381,-15.681,5.767
26,1436607530015,-45.381,-15.681,5.767
27,1436607530034,-45.381,-15.681,5.767
28,1436607530057,-45.381,-15.681,5.767
29,1436607530074,-45.381,-15.681,5.767
30,1436607530093,-45.381,-15.681,5.767
31,1436607530122,-45.381,-15.681,5.767
32,1436607530227,-45.381,-15.681,5.767
33,1436607530228,-45.381,-15.681,5.767
34,1436607530229,-45.381,-15.681,5.767
35,1436607530264,-45.381,-15.681,5.767
36,1436607530265,-45.381,-15.681,5.767
37,1436607530266,-45.381,-15.681,5.767
38,1436607530267,-45.381,-15.681,5.767
39,1436607530290,-45.381,-15.681,5.767
40,1436607530292,-45.381,-15.681,5.767
41,1436607530313,-45.381,-15.681,5.767
42,1436607530399,-45.381,-15.681,5.767
43,1436607530400,-45.381,-15.681,5.767
44,1436607530401,-45.381,-15.681,5.767
45,1436607530402,-45.381,-15.681,5.767
46,1436607530419,-45.381,-15.681,5.767
47,1436607530432,-45.381,-15.681,5.767
48,1436607530453,-45.381,-15.681,5.767
49,1436607530473,-45.381,-15.681,5.767
50,1436607530495,-45.381,-15.681,5.767
51,1436607530512,-45.381,-15.681,5.767
52,1436607530532,-45.381,-15.681,5.767
53,1436607530553,-45.381,-15.681,5.767
54,1436607530575,-45.381,-15.681,5.767
55,1436607530596,-45.381,-15.681,5.767
56,1436607530613,-45.381,-15.681,5.767
57,1436607530634,-45.381,-15.681,5.767
58,1436607530656,-45.381,-15.681,5.767
59,1436607530676,-45.381,-15.681,5.767
60,1436607530693,-45.381,-15.681,5.767
61,1436607530713,-45.381,-15.681,5.767
62,1436607530732,-45.381,-15.681,5.767
63,1436607530756,-45.381,-15.681,5.767
64,1436607530773,-45.381,-15.681,5.767
65,1436607530796,-45.381,-15.681,5.767
66,1436607530816,-45.381,-15.681,5.767
67,1436607530832,-45.381,-15.681,5.767
68,1436607530852,-45.381,-15.681,5.767
69,1436607530872,-45.381,-15.681,5.767
70,1436607530896,-45.381,-15.681,5.767
71,1436607530916,-45.381,-15.681,6.105
72,1436607530944,-45.381,-15.681,6.105
73,1436607530954,-45.381,-15.681,6.105
74,1436607530978,-45.381,-15.681,6.105
75,1436607530993,-45.381,-15.681,6.105
76,1436607531017,-45.381,-15.681,6.105
77,1436607531033,-45.381,-15.681,6.105
78,1436607531056,-45.381,-15.681,6.105
79,1436607531074,-45.381,-15.681,6.105
80,1436607531094,-45.381,-15.681,6.105
81,1436607531117,-45.381,-15.681,6.105
82,1436607531134,-45.381,-15.681,6.105
83,1436607531153,-45.381,-15.681,6.105
84,1436607531177,-45.381,-15.681,6.105
85,1436607531195,-45.381,-15.681,6.105
86,1436607531218,-45.381,-15.681,6.105
87,1436607531235,-45.381,-15.681,6.105
88,1436607531256,-45.381,-15.681,6.105
89,1436607531277,-45.381,-15.681,6.105
90,1436607531295,-45.381,-15.681,6.105
91,1436607531314,-45.381,-15.681,6.105
92,1436607531335,-45.381,-15.681,6.105
93,1436607531356,-45.381,-15.681,6.105
94,1436607531379,-45.381,-15.681,6.105
95,1436607531393,-45.381,-15.681,6.105
96,1436607531417,-45.381,-15.681,6.105
97,1436607531434,-45.381,-15.681,6.105
98,1436607531453,-45.381,-15.681,6.105
99,1436607531474,-45.381,-15.681,6.105
100,1436607531495,-45.381,-15.681,6.105
101,1436607531515,-45.381,-15.681,6.105
102,1436607531548,-45.381,-15.681,6.105
103,1436607531603,-45.381,-15.681,6.105
104,1436607531604,-45.381,-15.681,6.105
105,1436607531605,-45.381,-15.681,6.105
106,1436607531628,-45.381,-15.681,6.105
107,1436607531634,-45.381,-15.681,6.105
108,1436607531665,-45.381,-15.681,6.105
109,1436607531677,-45.381,-15.681,6.105
110,1436607531694,-45.381,-15.681,6.105
111,1436607531714,-45.381,-15.681,6.105
112,1436607531734,-45.381,-15.681,6.105
113,1436607531755,-45.381,-15.681,6.105
114,1436607531774,-45.381,-15.681,6.105
115,1436607531794,-45.381,-15.681,6.105
116,1436607531815,-45.381,-15.681,6.105
117,1436607531834,-45.381,-15.681,6.105
118,1436607531855,-45.381,-15.681,6.105
119,1436607531874,-45.381,-15.681,6.105
120,1436607531894,-45.381,-15.681,6.105
121,1436607531914,-45.381,-15.681,6.105
122,1436607531934,-45.381,-15.681,6.105
123,1436607531954,-45.381,-15.681,6.105
124,1436607531974,-45.381,-15.681,6.105
125,1436607531995,-45.381,-15.681,6.105
126,1436607532013,-45.381,-15.681,6.105
127,1436607532034,-45.381,-15.681,6.105
128,1436607532053,-45.381,-15.681,6.105
129,1436607532074,-45.381,-15.681,6.105
130,1436607532095,-45.381,-15.681,6.105
131,1436607532118,-45.381,-15.681,6.105
132,1436607532138,-45.381,-15.681,6.105
133,1436607532157,-45.381,-15.681,6.105
134,1436607532177,-45.381,-15.681,6.105
135,1436607532193,-45.381,-15.681,6.105
136,1436607532216,-45.381,-15.681,6.105
137,1436607532235,-45.381,-15.681,6.105
138,1436607532256,-45.381,-15.681,6.105
139,1436607532277,-45.381,-15.681,6.105
140,1436607532296,-45.381,-15.681,6.105
141,1436607532317,-45.381,-15.681,6.105
142,1436607532334,-45.381,-15.681,6.105
143,1436607532356,-45.381,-15.681,6.105
144,1436607532373,-45.381,-15.681,6.105
145,1436607532395,-45.381,-15.681,6.105
146,1436607532414,-45.381,-15.681,5.766
147,1436607532434,-45.381,-15.681,5.766
148,1436607532454,-45.381,-15.681,5.766
149,1436607532475,-45.381,-15.681,5.766
150,1436607532494,-45.381,-15.681,5.766
151,1436607532516,-45.381,-15.681,5.766
152,1436607532539,-45.381,-15.681,5.766
153,1436607532558,-45.381,-15.681,5.766
154,1436607532580,-45.381,-15.681,5.766
155,1436607532596,-45.381,-15.681,5.766
156,1436607532618,-45.381,-15.681,5.766
157,1436607532638,-45.381,-15.681,5.766
158,1436607532658,-45.381,-15.681,5.766
159,1436607532678,-45.381,-15.681,5.766
160,1436607532698,-45.381,-15.681,5.766
161,1436607532719,-45.381,-15.681,5.766
162,1436607532735,-45.381,-15.681,5.766
163,1436607532759,-45.381,-15.681,5.766
164,1436607532777,-45.381,-15.681,5.766
165,1436607532795,-45.381,-15.681,5.766
166,1436607532815,-45.381,-15.681,5.766
167,1436607532838,-45.381,-15.681,5.766
168,1436607532859,-45.381,-15.681,5.766
169,1436607532879,-45.381,-15.681,5.766
170,1436607532898,-45.381,-15.681,5.766
171,1436607532914,-45.381,-15.681,5.766
172,1436607532938,-45.381,-15.681,5.766
173,1436607532955,-45.381,-15.681,5.766
174,1436607533061,-45.381,-15.681,5.766
175,1436607533062,-45.381,-15.681,5.766
176,1436607533063,-45.381,-15.681,5.766
177,1436607533064,-45.381,-15.681,5.766
178,1436607533065,-45.381,-15.681,5.766
179,1436607533078,-45.381,-15.681,5.766
180,1436607533109,-45.381,-15.681,5.766
181,1436607533116,-45.381,-15.681,5.766
182,1436607533138,-45.381,-15.681,5.766
183,1436607533159,-45.381,-15.681,5.766
184,1436607533176,-45.381,-15.681,5.766
185,1436607533197,-45.381,-15.681,5.766
186,1436607533217,-45.381,-15.681,5.766
187,1436607533241,-45.381,-15.681,5.766
188,1436607533259,-45.381,-15.681,5.766
189,1436607533279,-45.381,-15.681,5.766
190,1436607533299,-45.381,-15.681,5.766
191,1436607533319,-45.381,-15.681,5.766
192,1436607533337,-45.381,-15.681,5.766
193,1436607533359,-45.381,-15.681,5.766
194,1436607533379,-45.381,-15.681,5.766
195,1436607533399,-45.381,-15.681,5.766
196,1436607533417,-45.381,-15.681,5.766
197,1436607533438,-45.381,-15.681,5.766
198,1436607533457,-45.381,-15.681,5.766
199,1436607533479,-45.381,-15.681,5.766
200,1436607533499,-45.381,-15.681,5.766
201,1436607533518,-45.381,-15.681,5.766
202,1436607533538,-45.381,-15.681,5.766
203,1436607533559,-45.381,-15.681,5.766
204,1436607533579,-45.381,-15.681,5.766
205,1436607533599,-45.381,-15.681,5.766
206,1436607533624,-45.381,-15.681,5.766
207,1436607533639,-45.381,-15.681,5.766
208,1436607533659,-45.381,-15.681,5.766
209,1436607533679,-45.381,-15.681,5.766
210,1436607533697,-45.381,-15.681,5.766
211,1436607533718,-45.381,-15.681,5.766
212,1436607533780,-45.381,-15.681,5.766
213,1436607533781,-45.381,-15.681,5.766
214,1436607533782,-45.381,-15.681,5.766
215,1436607533796,-45.381,-15.681,5.766
216,1436607533817,-45.381,-15.681,5.766
217,1436607533838,-45.381,-15.681,5.766
218,1436607533856,-45.381,-15.681,5.766
219,1436607533877,-45.381,-15.681,5.766
220,1436607533897,-45.381,-15.681,5.766
221,1436607533919,-45.381,-15.681,5.766
222,1436607533938,-45.381,-15.681,5.766
223,1436607533962,-45.381,-15.681,5.766
224,1436607533989,-45.381,-15.681,5.766
225,1436607533997,-45.381,-15.681,5.766
226,1436607534020,-45.381,-15.681,5.766
227,1436607534038,-45.381,-15.681,5.766
228,1436607534059,-45.381,-15.681,5.766
229,1436607534076,-45.381,-15.681,5.766
230,1436607534099,-45.381,-15.681,5.766
231,1436607534119,-45.381,-15.681,5.766
232,1436607534139,-45.381,-15.681,5.766
233,1436607534159,-45.381,-15.681,5.766
234,1436607534179,-45.381,-15.681,5.766
235,1436607534201,-45.381,-15.681,5.766
236,1436607534218,-45.381,-15.681,5.766
237,1436607534241,-45.381,-15.681,5.766
238,1436607534258,-45.381,-15.681,5.766
239,1436607534279,-45.381,-15.681,5.766
240,1436607534297,-45.381,-15.681,5.766
241,1436607534321,-45.381,-15.681,5.766
242,1436607534342,-45.381,-15.681,5.766
243,1436607534362,-45.381,-15.681,5.766
244,1436607534380,-45.381,-15.681,5.766
245,1436607534397,-45.381,-15.681,5.766
246,1436607534418,-45.381,-15.681,5.766
247,1436607534439,-45.381,-15.681,5.766
248,1436607534458,-45.381,-15.681,5.766
249,1436607534476,-45.381,-15.681,6.077
250,1436607534550,-45.381,-15.681,6.077
251,1436607534551,-45.381,-15.681,6.077
252,1436607534552,-45.381,-15.681,6.077
253,1436607534559,-45.381,-15.681,6.077
254,1436607534577,-45.381,-15.681,6.077
255,1436607534598,-45.381,-15.681,6.077
256,1436607534617,-45.381,-15.681,6.417
257,1436607534637,-45.381,-15.681,6.417
258,1436607534660,-45.381,-15.681,6.417
259,1436607534679,-45.381,-15.681,6.744
260,1436607534699,-45.381,-15.356,6.744
261,1436607534742,-45.381,-15.356,6.744
262,1436607534743,-45.381,-15.356,7.121
263,1436607534759,-45.381,-15.023,7.121
264,1436607534778,-45.381,-15.023,7.501
265,1436607534800,-45.681,-15.023,8.221
266,1436607534820,-45.681,-14.622,8.857
267,1436607534840,-45.681,-14.622,9.983
268,1436607534858,-45.681,-14.289,11.004
269,1436607534880,-45.681,-14.289,11.935
270,1436607534900,-45.681,-13.934,12.924
271,1436607534920,-45.681,-13.934,13.783
272,1436607534957,-45.681,-13.511,14.436
273,1436607534958,-45.681,-13.511,15.159
274,1436607534982,-45.681,-13.511,15.159
275,1436607535003,-45.681,-13.095,16.285
276,1436607535019,-45.681,-13.095,16.835
277,1436607535039,-45.681,-12.789,17.544
278,1436607535058,-45.681,-12.789,17.544
279,1436607535081,-45.333,-12.789,17.544
280,1436607535100,-45.333,-12.405,18.049
281,1436607535121,-45.333,-12.405,18.351
282,1436607535140,-45.333,-12.405,18.351
283,1436607535161,-44.886,-12.405,19.935
284,1436607535180,-44.886,-12.405,20.564
285,1436607535200,-44.529,-12.405,21.463
286,1436607535224,-44.529,-12.405,22.187
287,1436607535300,-43.513,-12.405,21.508
288,1436607535301,-42.832,-12.405,22.215
289,1436607535302,-42.332,-13.453,22.215
290,1436607535303,-41.938,-14.14,22.692
291,1436607535320,-41.503,-14.512,23.069
292,1436607535341,-40.937,-14.512,23.875
293,1436607535357,-40.612,-14.512,23.875
294,1436607535382,-40.235,-14.512,24.488
295,1436607535412,-39.791,-14.512,25.581
296,1436607535422,-39.193,-14.512,26.358
297,1436607535437,-38.499,-14.938,27.151
298,1436607535457,-37.863,-14.938,28.302
299,1436607535478,-37.159,-14.938,28.302
300,1436607535501,-36.412,-14.938,29.783
301,1436607535521,-35.409,-14.938,30.369
302,1436607535541,-34.631,-15.394,31.704
303,1436607535561,-33.914,-15.394,32.36
304,1436607535579,-33.398,-15.394,33.203
305,1436607535602,-32.78,-15.394,34.045
306,1436607535621,-31.98,-15.394,35.351
307,1436607535639,-31.105,-15.394,36.34
308,1436607535663,-29.739,-15.394,38.096
309,1436607535679,-27.441,-15.013,38.893
310,1436607535701,-25.921,-14.009,40.629
311,1436607535718,-24.353,-13.452,40.629
312,1436607535737,-22.767,-12.866,41.619
313,1436607535758,-21.002,-12.55,42.622
314,1436607535778,-19.464,-12.55,43.037
315,1436607535804,-18.214,-12.55,43.962
316,1436607535824,-17.19,-12.55,43.531
317,1436607535841,-16.348,-12.55,43.531
318,1436607535858,-15.507,-12.55,44.334
319,1436607535880,-14.382,-12.223,44.656
320,1436607535898,-13.346,-12.223,45.082
321,1436607535919,-12.245,-12.223,45.082
322,1436607536044,-11.419,-12.223,45.622
323,1436607536045,-10.594,-12.223,45.622
324,1436607536046,-9.494,-11.874,45.622
325,1436607536047,-8.689,-11.874,46.202
326,1436607536048,-8.004,-11.491,45.852
327,1436607536049,-7.408,-11.491,45.852
328,1436607536061,-6.829,-11.491,45.852
329,1436607536102,-6.127,-11.129,45.852
330,1436607536103,-6.127,-11.129,45.852
331,1436607536118,-6.127,-11.129,45.852
332,1436607536138,-5.715,-10.809,45.852
333,1436607536161,-5.715,-10.809,45.852
334,1436607536179,-5.715,-10.809,45.852
335,1436607536199,-5.715,-10.408,45.852
336,1436607536219,-5.715,-10.408,46.284
337,1436607536238,-5.245,-10.05,46.284
338,1436607536261,-5.245,-10.05,46.284
339,1436607536281,-5.245,-9.674,46.681
340,1436607536300,-5.245,-9.674,46.681
341,1436607536321,-5.245,-9.339,46.681
342,1436607536340,-5.245,-9.339,46.681
343,1436607536361,-5.245,-9.01,46.998
344,1436607536381,-5.245,-9.01,46.998
345,1436607536399,-5.245,-9.01,46.998
346,1436607536421,-4.853,-8.58,46.998
347,1436607536441,-3.326,-8.58,46.998
348,1436607536460,-1.359,-8.58,46.998
349,1436607536481,0.218,-8.222,46.998
350,1436607536498,0.688,-8.222,46.998
351,1436607536519,0.688,-8.222,46.998
352,1436607536540,0.688,-8.222,46.998
353,1436607536562,0.236,-8.222,46.998
354,1436607536582,-0.692,-8.222,46.998
355,1436607536602,-1.551,-8.222,46.998
356,1436607536622,-3.01,-8.222,46.998
357,1436607536639,-4.258,-8.222,46.998
358,1436607536660,-6.134,-8.222,46.998
359,1436607536680,-8.094,-8.222,46.998
360,1436607536700,-10.374,-8.222,46.998
361,1436607536784,-13.4,-8.222,46.998
362,1436607536785,-16.467,-8.222,46.551
363,1436607536786,-19.696,-8.222,46.551
364,1436607536787,-23.229,-8.222,45.178
365,1436607536799,-26.33,-8.222,42.594
366,1436607536823,-29.222,-8.222,40.196
367,1436607536839,-31.21,-8.528,37.966
368,1436607536859,-32.455,-8.528,36.036
369,1436607536881,-33.97,-8.528,35.299
370,1436607536900,-34.988,-8.528,34.04
371,1436607536920,-35.998,-8.528,32.618
372,1436607536940,-36.795,-8.528,32.618
373,1436607536961,-37.2,-8.528,32.049
374,1436607536981,-37.2,-8.528,31.523
375,1436607537001,-37.591,-8.209,31.523
376,1436607537021,-37.591,-8.209,31.523
377,1436607537042,-37.591,-8.209,31.175
378,1436607537062,-37.899,-7.858,30.673
379,1436607537079,-37.899,-7.858,30.282
380,1436607537101,-38.543,-7.858,30.282
381,1436607537122,-38.543,-7.447,29.965
382,1436607537143,-38.865,-7.112,29.965
383,1436607537164,-39.195,-7.112,29.15
384,1436607537183,-39.195,-6.625,29.15
385,1436607537202,-39.195,-6.625,29.15
386,1436607537220,-39.195,-6.625,28.527
387,1436607537240,-39.54,-6.625,28.948
388,1436607537260,-39.231,-6.21,28.948
389,1436607537283,-39.231,-6.21,28.948
390,1436607537304,-39.231,-5.859,28.948
391,1436607537327,-39.231,-5.859,28.553
392,1436607537342,-39.231,-5.538,28.041
393,1436607537359,-39.651,-5.538,27.444
394,1436607537388,-39.971,-5.154,27.444
395,1436607537407,-40.515,-5.154,26.451
396,1436607537430,-41.023,-4.061,25.975
397,1436607537489,-41.584,-3.28,25.207
398,1436607537490,-42.219,-2.322,23.849
399,1436607537491,-42.741,-1.464,22.505
400,1436607537503,-43.289,-0.813,21.621
401,1436607537519,-43.658,-0.155,20.959
402,1436607537541,-43.658,0.984,20.622
403,1436607537559,-44.218,1.809,19.786
404,1436607537579,-44.532,2.963,19.332
405,1436607537599,-44.532,3.506,18.774
406,1436607537619,-44.857,4.257,18.432
407,1436607537642,-44.857,5.181,18.432
408,1436607537665,-44.857,6.013,17.779
409,1436607537681,-44.857,6.935,17.373
410,1436607537700,-45.164,7.827,17.373
411,1436607537723,-45.164,8.943,16.813
412,1436607537741,-45.164,9.587,16.169
413,1436607537763,-45.164,10.589,15.354
414,1436607537783,-45.164,10.949,15.354
415,1436607537803,-45.164,11.582,13.739
416,1436607537823,-45.164,11.926,12.808
417,1436607537840,-45.552,12.353,11.645
418,1436607537863,-45.552,12.353,10.401
419,1436607537884,-45.552,12.353,8.897
420,1436607537900,-45.552,12.744,7.792
421,1436607537924,-45.899,12.744,6.103
422,1436607537948,-45.899,13.076,4.881
423,1436607537963,-45.899,13.076,4.08
424,1436607537990,-45.899,13.958,3.614
425,1436607538003,-45.899,13.958,2.459
426,1436607538020,-45.899,13.958,1.489
427,1436607538041,-45.899,13.958,1.489
428,1436607538062,-45.899,13.958,0.805
429,1436607538083,-45.899,13.572,-0.308
430,1436607538102,-45.899,13.572,-0.836
431,1436607538123,-45.899,13.243,-1.96
432,1436607538143,-45.899,13.243,-2.566
433,1436607538162,-45.899,13.243,-3.08
434,1436607538233,-45.899,13.243,-3.855
435,1436607538234,-45.899,13.545,-4.466
436,1436607538235,-45.899,13.545,-4.466
437,1436607538241,-45.899,13.545,-5.455
438,1436607538270,-45.899,13.545,-5.455
439,1436607538281,-45.899,13.545,-5.455
440,1436607538300,-45.899,13.194,-4.704
441,1436607538322,-45.899,13.194,-4.704
442,1436607538341,-45.899,12.753,-5.81
443,1436607538365,-45.547,12.753,-5.81
444,1436607538382,-45.547,12.753,-6.33
445,1436607538401,-45.547,12.753,-6.33
446,1436607538422,-45.547,12.753,-7.363
447,1436607538444,-45.547,12.382,-7.363
448,1436607538465,-45.179,12.382,-7.797
449,1436607538482,-45.179,12.382,-7.797
450,1436607538503,-45.179,12.382,-7.797
451,1436607538523,-45.179,12.382,-9.046
452,1436607538542,-45.179,12.382,-10.145
453,1436607538563,-44.79,12.382,-10.566
454,1436607538582,-44.453,12.886,-10.951
455,1436607538604,-44.091,12.886,-10.951
456,1436607538620,-43.71,13.505,-11.938
457,1436607538646,-43.71,13.505,-12.533
458,1436607538662,-43.176,13.505,-13.214
459,1436607538683,-42.684,13.505,-14.176
460,1436607538702,-42.233,13.505,-16.059
461,1436607538723,-41.581,13.505,-17.001
462,1436607538742,-40.49,13.505,-18.751
463,1436607538764,-39.428,13.505,-20.132
464,1436607538782,-38.682,13.505,-21.768
465,1436607538802,-37.524,13.505,-22.843
466,1436607538823,-36.964,13.505,-22.843
467,1436607538843,-36.488,13.505,-24.36
468,1436607538863,-36.488,13.505,-24.742
469,1436607538883,-36.488,13.505,-24.742
470,1436607538974,-36.83,12.483,-24.104
471,1436607538975,-37.286,11.679,-23.703
472,1436607538976,-38.143,11.056,-23.071
473,1436607538990,-38.883,10.36,-21.395
474,1436607538991,-39.649,9.994,-19.735
475,1436607539009,-40.539,9.661,-17.918
476,1436607539033,-41.018,9.661,-17.195
477,1436607539049,-41.018,9.661,-16.323
478,1436607539074,-42.083,9.284,-15.295
479,1436607539094,-46.406,9.284,-14.018
480,1436607539101,-47.16,8.946,-12.911
481,1436607539128,-43.832,8.946,-12.368
482,1436607539142,-43.832,8.946,-10.777
483,1436607539164,-44.61,8.946,-9.153
484,1436607539184,-44.61,8.946,-8.554
485,1436607539201,-45.231,8.946,-8.554
486,1436607539222,-45.231,8.946,-6.211
487,1436607539244,-45.857,8.946,-5.343
488,1436607539264,-46.286,8.946,-3.979
489,1436607539284,-46.286,8.946,-2.452
490,1436607539301,-46.286,8.946,-0.311
491,1436607539322,-46.733,8.946,2.032
492,1436607539344,-46.733,8.946,3.861
493,1436607539363,-46.733,8.946,6.309
494,1436607539384,-46.733,8.946,8.778
495,1436607539402,-46.298,8.946,10.694
496,1436607539422,-46.298,8.946,12.844
497,1436607539444,-46.298,9.336,15.055
498,1436607539464,-46.298,9.336,16.369
499,1436607539484,-46.298,9.336,18.191
500,1436607539507,-46.298,9.666,19.592
501,1436607539523,-46.298,9.666,20.991
502,1436607539544,-45.979,9.666,22.685
503,1436607539564,-45.979,9.666,24.984
