id,attr_time,attr_x,attr_y,attr_z
1,1436607529533,-11.883,-32.962,22.485
2,1436607529553,-11.883,-32.962,22.485
3,1436607529573,-11.883,-32.962,22.485
4,1436607529592,-11.883,-32.962,22.485
5,1436607529612,-11.883,-32.962,22.485
6,1436607529632,-11.883,-32.962,22.485
7,1436607529653,-11.883,-32.962,22.485
8,1436607529673,-11.883,-32.962,22.485
9,1436607529692,-11.883,-32.962,22.485
10,1436607529713,-11.883,-32.962,22.485
11,1436607529733,-11.883,-32.962,22.485
12,1436607529751,-11.883,-32.962,22.485
13,1436607529780,-11.883,-32.962,22.485
14,1436607529839,-11.883,-32.962,22.485
15,1436607529840,-11.883,-32.962,22.172
16,1436607529841,-11.883,-32.962,22.172
17,1436607529852,-11.883,-32.962,22.172
18,1436607529874,-11.883,-32.962,22.172
19,1436607529895,-11.883,-32.962,22.172
20,1436607529910,-11.883,-32.962,22.172
21,1436607529930,-11.883,-32.962,22.172
22,1436607529952,-11.883,-32.962,22.172
23,1436607529972,-11.883,-32.962,22.172
24,1436607529993,-11.883,-32.962,22.172
25,1436607530016,-11.883,-32.962,22.172
26,1436607530042,-11.883,-32.962,22.172
27,1436607530054,-11.883,-32.962,22.172
28,1436607530073,-11.883,-32.962,22.172
29,1436607530092,-11.883,-32.962,22.172
30,1436607530113,-11.883,-32.962,22.172
31,1436607530133,-11.883,-32.962,22.172
32,1436607530152,-11.883,-32.962,22.172
33,1436607530173,-11.883,-32.962,22.172
34,1436607530192,-11.883,-32.962,22.172
35,1436607530213,-11.883,-32.962,22.172
36,1436607530233,-11.883,-32.962,22.172
37,1436607530252,-11.883,-32.962,22.172
38,1436607530273,-11.883,-32.962,22.172
39,1436607530293,-11.883,-32.962,22.172
40,1436607530311,-11.883,-32.962,22.172
41,1436607530331,-11.883,-32.962,22.172
42,1436607530351,-11.883,-32.962,22.172
43,1436607530376,-11.883,-32.962,22.172
44,1436607530396,-11.883,-32.962,22.172
45,1436607530416,-11.883,-32.962,22.172
46,1436607530431,-11.883,-32.962,22.172
47,1436607530452,-11.883,-32.962,22.172
48,1436607530471,-11.883,-32.962,22.172
49,1436607530491,-11.883,-32.962,22.172
50,1436607530513,-11.883,-32.962,22.172
51,1436607530531,-11.883,-32.962,22.172
52,1436607530587,-11.883,-32.962,22.172
53,1436607530590,-11.883,-32.962,22.172
54,1436607530602,-11.883,-32.962,22.172
55,1436607530613,-11.883,-32.962,22.172
56,1436607530631,-11.883,-32.962,22.172
57,1436607530652,-11.883,-32.962,22.172
58,1436607530671,-11.883,-32.962,22.172
59,1436607530694,-11.883,-32.962,22.172
60,1436607530711,-11.883,-32.962,22.172
61,1436607530734,-11.883,-32.962,22.172
62,1436607530755,-11.883,-32.962,22.172
63,1436607530772,-11.883,-32.962,22.172
64,1436607530791,-11.883,-32.962,22.172
65,1436607530814,-11.883,-32.962,22.172
66,1436607530832,-11.883,-32.962,22.172
67,1436607530855,-11.883,-32.962,22.172
68,1436607530874,-11.883,-32.962,22.172
69,1436607530894,-11.883,-32.962,22.172
70,1436607530913,-11.883,-32.962,22.172
71,1436607530934,-11.883,-32.962,22.172
72,1436607530954,-11.883,-32.962,22.172
73,1436607530974,-11.883,-32.962,22.172
74,1436607530998,-11.883,-32.962,22.172
75,1436607531014,-11.883,-32.962,22.172
76,1436607531041,-11.883,-32.962,22.172
77,1436607531058,-11.883,-32.962,22.172
78,1436607531073,-11.883,-32.962,22.172
79,1436607531094,-11.883,-32.962,22.172
80,1436607531111,-11.883,-32.962,22.172
81,1436607531133,-11.883,-32.962,22.172
82,1436607531151,-11.883,-32.962,22.172
83,1436607531171,-11.883,-32.962,22.172
84,1436607531198,-11.575,-32.962,22.172
85,1436607531214,-11.575,-32.962,22.172
86,1436607531233,-11.575,-32.962,22.172
87,1436607531262,-11.575,-32.962,22.172
88,1436607531272,-11.575,-32.962,22.172
89,1436607531317,-11.575,-32.962,22.172
90,1436607531318,-11.575,-32.962,22.172
91,1436607531338,-11.575,-32.962,22.172
92,1436607531354,-11.575,-32.962,22.172
93,1436607531379,-11.575,-32.962,22.172
94,1436607531395,-11.575,-32.962,22.172
95,1436607531412,-11.575,-32.962,22.172
96,1436607531435,-11.575,-32.962,22.172
97,1436607531452,-11.575,-32.962,22.172
98,1436607531473,-11.575,-32.962,22.172
99,1436607531493,-11.575,-32.962,22.172
100,1436607531514,-11.575,-32.962,22.172
101,1436607531532,-11.575,-32.962,22.172
102,1436607531555,-11.575,-32.962,22.172
103,1436607531575,-11.575,-32.962,22.172
104,1436607531595,-11.575,-32.962,22.172
105,1436607531614,-11.575,-32.962,22.172
106,1436607531632,-11.575,-32.962,22.172
107,1436607531655,-11.575,-32.962,22.172
108,1436607531674,-11.575,-32.962,22.172
109,1436607531695,-11.575,-32.962,22.172
110,1436607531713,-11.575,-32.962,22.172
111,1436607531734,-11.575,-32.962,22.172
112,1436607531755,-11.575,-32.962,22.172
113,1436607531774,-11.575,-32.962,22.172
114,1436607531794,-11.575,-32.962,22.172
115,1436607531812,-11.575,-32.962,22.172
116,1436607531839,-11.575,-32.962,22.172
117,1436607531858,-11.575,-32.962,22.172
118,1436607531877,-11.575,-32.962,22.172
119,1436607531895,-11.575,-32.962,22.172
120,1436607531912,-11.575,-32.962,22.172
121,1436607531933,-11.575,-32.962,22.172
122,1436607531954,-11.575,-32.962,22.172
123,1436607531973,-11.575,-32.962,22.172
124,1436607531993,-11.575,-32.962,22.172
125,1436607532115,-11.575,-32.962,22.172
126,1436607532116,-11.575,-32.962,22.172
127,1436607532117,-11.575,-32.962,22.172
128,1436607532118,-11.575,-32.962,22.172
129,1436607532119,-11.575,-32.962,22.509
130,1436607532120,-11.575,-32.962,22.509
131,1436607532179,-11.575,-32.962,22.509
132,1436607532180,-11.894,-32.962,22.509
133,1436607532181,-11.894,-32.962,22.509
134,1436607532209,-11.894,-32.962,22.509
135,1436607532213,-11.894,-32.962,22.509
136,1436607532233,-11.894,-32.962,22.509
137,1436607532259,-11.894,-32.962,22.509
138,1436607532273,-11.894,-32.962,22.509
139,1436607532296,-11.894,-32.962,22.509
140,1436607532319,-11.894,-32.962,22.509
141,1436607532334,-11.894,-32.962,22.509
142,1436607532354,-11.894,-32.962,22.509
143,1436607532375,-11.894,-32.962,22.509
144,1436607532396,-11.894,-32.962,22.509
145,1436607532415,-11.894,-32.962,22.509
146,1436607532435,-11.894,-32.962,22.509
147,1436607532455,-11.894,-32.962,22.509
148,1436607532475,-11.894,-32.962,22.509
149,1436607532496,-11.894,-32.962,22.509
150,1436607532515,-11.894,-32.962,22.509
151,1436607532541,-11.894,-32.962,22.509
152,1436607532553,-11.894,-32.962,22.509
153,1436607532578,-11.894,-32.962,22.509
154,1436607532593,-11.894,-32.962,22.509
155,1436607532613,-11.894,-32.962,22.509
156,1436607532633,-11.894,-32.962,22.509
157,1436607532653,-11.894,-32.962,22.509
158,1436607532673,-11.894,-32.962,22.509
159,1436607532696,-11.894,-32.962,22.509
160,1436607532713,-11.894,-32.962,22.509
161,1436607532733,-11.894,-32.962,22.509
162,1436607532753,-11.894,-32.962,22.509
163,1436607532773,-11.894,-32.962,22.509
164,1436607532859,-11.894,-32.962,22.509
165,1436607532860,-11.894,-32.962,22.509
166,1436607532861,-11.894,-32.962,22.509
167,1436607532862,-11.894,-32.962,22.509
168,1436607532881,-11.894,-32.962,22.509
169,1436607532893,-11.894,-32.962,22.509
170,1436607532915,-11.894,-32.962,22.509
171,1436607532936,-11.894,-32.962,22.509
172,1436607532953,-11.894,-32.962,22.509
173,1436607532987,-11.894,-32.962,22.509
174,1436607533009,-11.894,-32.962,22.509
175,1436607533012,-11.894,-32.962,22.509
176,1436607533033,-11.894,-32.962,22.831
177,1436607533052,-11.894,-32.962,22.831
178,1436607533077,-11.894,-32.962,22.831
179,1436607533095,-11.894,-32.962,22.831
180,1436607533118,-11.894,-32.962,22.831
181,1436607533138,-11.894,-32.962,22.831
182,1436607533155,-11.894,-32.962,22.831
183,1436607533178,-11.894,-32.962,22.831
184,1436607533198,-11.894,-32.962,22.831
185,1436607533218,-11.894,-32.962,22.831
186,1436607533238,-11.894,-32.962,22.831
187,1436607533254,-11.894,-32.962,22.831
188,1436607533278,-11.894,-32.962,22.831
189,1436607533298,-11.894,-32.962,22.831
190,1436607533318,-11.894,-32.962,22.831
191,1436607533338,-11.894,-32.962,22.831
192,1436607533358,-11.894,-32.962,22.831
193,1436607533375,-11.894,-32.962,22.831
194,1436607533395,-11.894,-32.962,22.831
195,1436607533415,-11.894,-32.962,22.831
196,1436607533438,-11.894,-32.962,22.831
197,1436607533459,-11.894,-32.962,22.831
198,1436607533479,-11.894,-32.962,22.831
199,1436607533495,-11.894,-32.962,22.831
200,1436607533519,-11.894,-32.962,22.831
201,1436607533569,-11.894,-32.962,22.831
202,1436607533570,-11.894,-32.962,22.831
203,1436607533576,-11.894,-32.962,22.831
204,1436607533616,-11.894,-32.962,22.831
205,1436607533617,-11.894,-32.962,22.831
206,1436607533634,-11.894,-32.962,22.831
207,1436607533665,-11.894,-32.962,22.831
208,1436607533674,-11.894,-32.962,22.831
209,1436607533694,-11.894,-32.962,22.831
210,1436607533714,-11.894,-32.962,22.831
211,1436607533734,-11.894,-32.962,22.831
212,1436607533760,-11.894,-32.962,22.831
213,1436607533774,-11.894,-32.962,22.831
214,1436607533794,-11.894,-32.962,22.831
215,1436607533815,-11.894,-32.962,22.831
216,1436607533837,-11.894,-32.962,22.831
217,1436607533857,-11.894,-32.962,22.831
218,1436607533876,-11.894,-32.962,22.831
219,1436607533897,-11.894,-32.962,22.831
220,1436607533918,-11.894,-33.282,22.831
221,1436607533938,-11.894,-33.282,22.831
222,1436607533958,-11.894,-33.282,22.831
223,1436607533978,-11.894,-33.282,22.831
224,1436607533999,-11.894,-33.282,22.831
225,1436607534016,-11.894,-33.282,22.831
226,1436607534042,-11.894,-33.282,23.146
227,1436607534057,-11.894,-33.282,23.146
228,1436607534080,-11.894,-33.282,23.146
229,1436607534098,-11.894,-33.282,23.146
230,1436607534115,-11.894,-33.282,23.146
231,1436607534135,-11.894,-33.282,23.146
232,1436607534155,-11.894,-33.282,23.146
233,1436607534180,-11.894,-33.282,23.146
234,1436607534200,-11.894,-33.282,23.146
235,1436607534217,-11.894,-33.282,23.146
236,1436607534237,-11.894,-33.282,23.146
237,1436607534256,-11.894,-33.282,23.146
238,1436607534336,-11.894,-33.282,23.146
239,1436607534337,-11.894,-33.282,23.146
240,1436607534338,-11.894,-33.282,23.146
241,1436607534339,-11.894,-33.282,23.146
242,1436607534357,-11.894,-33.282,23.146
243,1436607534376,-11.894,-33.282,23.146
244,1436607534396,-11.894,-33.282,23.146
245,1436607534418,-11.894,-33.282,22.81
246,1436607534449,-11.894,-33.282,22.81
247,1436607534456,-11.894,-33.282,22.81
248,1436607534476,-11.894,-33.282,22.81
249,1436607534497,-11.894,-33.282,22.81
250,1436607534518,-11.894,-33.282,22.81
251,1436607534538,-11.894,-33.282,22.81
252,1436607534558,-11.894,-33.282,22.479
253,1436607534578,-11.894,-33.282,22.479
254,1436607534599,-11.894,-33.282,22.479
255,1436607534619,-11.894,-33.282,22.479
256,1436607534638,-11.894,-33.282,22.479
257,1436607534658,-11.894,-33.282,22.479
258,1436607534678,-11.894,-33.282,22.479
259,1436607534699,-11.894,-33.282,22.479
260,1436607534716,-11.894,-33.282,22.479
261,1436607534738,-11.894,-33.282,22.479
262,1436607534758,-11.894,-33.282,22.479
263,1436607534778,-12.213,-33.282,22.479
264,1436607534797,-12.213,-33.282,22.479
265,1436607534817,-12.213,-33.282,22.479
266,1436607534838,-12.524,-33.282,22.479
267,1436607534858,-12.524,-33.282,22.479
268,1436607534882,-12.844,-33.282,22.479
269,1436607534900,-13.385,-32.926,22.479
270,1436607534918,-14.263,-32.926,22.479
271,1436607534937,-14.775,-32.926,22.479
272,1436607534957,-14.775,-32.926,22.479
273,1436607535066,-14.775,-32.557,22.779
274,1436607535067,-15.184,-32.557,22.779
275,1436607535068,-15.184,-32.557,22.779
276,1436607535086,-15.184,-32.557,22.779
277,1436607535087,-14.759,-32.557,22.779
278,1436607535088,-14.759,-32.557,22.779
279,1436607535108,-14.442,-32.557,22.779
280,1436607535117,-14.442,-32.557,22.779
281,1436607535137,-13.209,-32.557,22.779
282,1436607535155,-11.882,-32.557,22.477
283,1436607535175,-10.592,-32.557,22.477
284,1436607535199,-10.592,-32.557,22.477
285,1436607535217,-10.592,-32.557,22.477
286,1436607535261,-10.592,-32.557,22.477
287,1436607535262,-10.929,-32.557,22.477
288,1436607535276,-10.598,-32.557,22.793
289,1436607535299,-10.194,-32.557,22.793
290,1436607535319,-9.715,-32.557,22.793
291,1436607535339,-9.317,-32.557,23.133
292,1436607535359,-8.837,-32.557,23.48
293,1436607535379,-8.465,-32.557,24.147
294,1436607535399,-7.833,-32.557,25.175
295,1436607535420,-7.833,-32.557,25.175
296,1436607535439,-7.833,-32.557,25.175
297,1436607535457,-7.833,-32.557,25.97
298,1436607535480,-7.833,-32.557,26.449
299,1436607535497,-7.833,-32.557,26.449
300,1436607535519,-7.833,-32.186,26.449
301,1436607535540,-7.833,-31.796,26.934
302,1436607535560,-7.437,-31.796,26.934
303,1436607535580,-7.437,-31.419,26.934
304,1436607535600,-7.112,-31.105,26.934
305,1436607535618,-7.112,-30.607,26.934
306,1436607535637,-7.112,-30.288,27.308
307,1436607535660,-6.77,-30.288,27.308
308,1436607535680,-6.77,-29.899,27.308
309,1436607535701,-6.77,-29.583,27.308
310,1436607535721,-6.77,-29.583,27.622
311,1436607535740,-6.361,-29.071,27.622
312,1436607535762,-6.361,-29.071,28.001
313,1436607535831,-6.361,-28.668,28.001
314,1436607535832,-6.361,-28.668,28.321
315,1436607535833,-6.004,-28.224,28.321
316,1436607535839,-6.004,-28.224,28.666
317,1436607535858,-6.004,-28.224,28.666
318,1436607535879,-6.004,-27.847,28.974
319,1436607535897,-6.004,-27.847,28.974
320,1436607535917,-6.004,-27.847,29.321
321,1436607535939,-6.004,-27.366,29.321
322,1436607535957,-6.004,-27.366,29.321
323,1436607535977,-6.004,-27.366,29.817
324,1436607536000,-6.004,-26.899,29.817
325,1436607536019,-6.004,-26.899,29.817
326,1436607536042,-6.004,-26.533,30.239
327,1436607536057,-6.347,-26.533,30.239
328,1436607536079,-6.347,-26.179,30.239
329,1436607536099,-6.347,-26.179,30.654
330,1436607536120,-6.736,-25.851,30.654
331,1436607536140,-6.736,-25.851,30.654
332,1436607536157,-7.087,-25.55,31.005
333,1436607536180,-7.087,-25.55,31.005
334,1436607536200,-7.466,-25.25,31.005
335,1436607536221,-7.818,-25.25,31.005
336,1436607536238,-8.36,-24.916,31.327
337,1436607536260,-8.822,-24.916,31.327
338,1436607536279,-9.376,-24.916,31.327
339,1436607536298,-9.742,-24.497,31.327
340,1436607536318,-10.171,-24.497,31.327
341,1436607536337,-10.496,-24.497,31.327
342,1436607536360,-11.024,-24.072,31.327
343,1436607536380,-11.34,-24.072,31.327
344,1436607536400,-11.692,-24.072,31.327
345,1436607536419,-11.692,-23.648,31.671
346,1436607536439,-12.178,-23.648,31.671
347,1436607536463,-12.178,-23.324,31.671
348,1436607536478,-12.178,-23.324,31.671
349,1436607536502,-12.178,-23.005,31.671
350,1436607536571,-12.178,-23.005,31.671
351,1436607536572,-12.178,-23.005,31.671
352,1436607536573,-12.178,-22.581,31.671
353,1436607536581,-12.178,-22.581,31.971
354,1436607536598,-12.178,-22.581,31.971
355,1436607536619,-12.178,-22.581,31.971
356,1436607536637,-12.178,-22.241,31.971
357,1436607536662,-12.483,-22.241,31.971
358,1436607536689,-12.483,-22.241,31.971
359,1436607536698,-12.483,-22.241,31.971
360,1436607536719,-12.483,-22.241,32.289
361,1436607536738,-12.483,-22.241,32.289
362,1436607536760,-12.182,-22.241,32.289
363,1436607536779,-12.182,-22.241,32.289
364,1436607536800,-11.573,-22.241,32.289
365,1436607536820,-11.198,-22.241,32.289
366,1436607536840,-10.852,-22.241,32.289
367,1436607536860,-10.852,-22.241,32.289
368,1436607536880,-10.432,-22.673,32.289
369,1436607536899,-10.432,-22.673,32.289
370,1436607536920,-9.994,-22.673,32.289
371,1436607536940,-9.994,-23.123,32.289
372,1436607536958,-9.671,-23.123,32.289
373,1436607536984,-9.671,-23.478,32.289
374,1436607536999,-9.671,-23.478,32.289
375,1436607537018,-9.671,-24.453,31.925
376,1436607537040,-9.194,-25.263,31.925
377,1436607537057,-8.666,-26.287,31.925
378,1436607537081,-8.169,-26.763,31.582
379,1436607537100,-7.723,-27.4,31.582
380,1436607537120,-7.723,-28.109,31.251
381,1436607537141,-7.423,-28.552,31.251
382,1436607537159,-7.423,-28.952,30.711
383,1436607537179,-6.968,-29.415,30.134
384,1436607537201,-6.968,-29.415,29.376
385,1436607537218,-6.501,-30.006,29.005
386,1436607537258,-6.501,-30.006,28.172
387,1436607537259,-6.501,-30.403,27.867
388,1436607537351,-6.501,-30.403,27.471
389,1436607537352,-6.501,-30.734,27.471
390,1436607537353,-6.112,-30.734,27.128
391,1436607537354,-6.112,-30.734,27.128
392,1436607537366,-5.711,-30.734,27.128
393,1436607537378,-5.711,-30.734,26.673
394,1436607537399,-5.262,-30.734,26.673
395,1436607537418,-5.262,-30.734,27.059
396,1436607537439,-4.806,-30.734,26.704
397,1436607537458,-4.806,-30.734,26.704
398,1436607537479,-4.232,-30.734,26.704
399,1436607537499,-3.434,-31.088,26.704
400,1436607537521,-2.337,-31.088,26.704
401,1436607537540,-1.029,-31.088,26.704
402,1436607537560,0.248,-31.436,26.704
403,1436607537581,1.919,-31.436,26.704
404,1436607537600,3.382,-31.436,26.704
405,1436607537620,5.509,-31.77,26.704
406,1436607537640,7.015,-31.77,26.704
407,1436607537660,8.821,-31.77,26.704
408,1436607537681,10.124,-31.77,26.704
409,1436607537700,11.817,-31.77,26.704
410,1436607537720,12.721,-31.77,26.704
411,1436607537739,13.905,-31.77,26.704
412,1436607537759,14.375,-31.77,26.704
413,1436607537779,15.495,-31.77,26.704
414,1436607537799,16.499,-31.77,26.704
415,1436607537818,17.131,-31.416,26.704
416,1436607537842,18.241,-31.416,26.704
417,1436607537863,19.5,-30.876,26.704
418,1436607537882,19.5,-30.876,26.704
419,1436607537898,20.672,-30.381,26.704
420,1436607537918,21.67,-29.949,25.556
421,1436607537939,22.805,-29.949,23.675
422,1436607537958,23.602,-29.55,22.895
423,1436607537979,23.091,-29.55,21.766
424,1436607538003,23.091,-29.55,21.766
425,1436607538123,23.091,-29.55,20.585
426,1436607538124,23.785,-29.55,19.104
427,1436607538125,23.785,-29.55,18.051
428,1436607538126,23.785,-29.55,17.008
429,1436607538127,23.785,-29.55,15.342
430,1436607538128,23.785,-29.55,12.968
431,1436607538139,23.785,-29.55,11.331
432,1436607538158,24.124,-29.881,8.43
433,1436607538178,23.539,-31.222,4.864
434,1436607538203,23.208,-32.376,3.273
435,1436607538219,23.208,-33.218,1.3
436,1436607538240,22.833,-33.976,0.109
437,1436607538260,22.833,-34.6,-0.856
438,1436607538281,22.438,-35.502,-1.452
439,1436607538299,20.811,-36.251,-1.452
440,1436607538322,19.194,-36.97,-0.75
441,1436607538342,16.883,-38.059,-0.75
442,1436607538362,14.274,-38.905,0.196
443,1436607538382,12.242,-38.905,2.207
444,1436607538400,10.487,-39.654,4.394
445,1436607538420,9.083,-39.654,5.656
446,1436607538442,8.407,-39.654,6.848
447,1436607538462,8.407,-39.654,6.848
448,1436607538480,8.407,-39.282,7.699
449,1436607538500,7.989,-39.282,8.207
450,1436607538520,7.989,-39.282,9.269
451,1436607538540,7.989,-38.804,9.658
452,1436607538562,7.406,-38.804,10.496
453,1436607538582,7.723,-38.804,11.831
454,1436607538599,7.043,-38.804,12.652
455,1436607538620,6.622,-38.804,13.751
456,1436607538642,6.622,-38.804,15.278
457,1436607538662,6.321,-39.141,15.278
458,1436607538683,6.321,-39.141,15.994
459,1436607538701,5.924,-39.141,17.529
460,1436607538720,5.924,-39.141,17.861
461,1436607538741,5.58,-39.141,19.415
462,1436607538761,5.957,-39.141,20.402
463,1436607538780,5.957,-38.639,21.055
464,1436607538800,5.957,-37.902,21.055
465,1436607538860,5.258,-37.078,22.456
466,1436607538861,5.258,-36.343,23.527
467,1436607538862,5.258,-35.725,23.527
468,1436607538879,5.258,-35.083,24.407
469,1436607538902,4.907,-34.481,25.312
470,1436607538919,4.907,-33.486,26.023
471,1436607538939,4.907,-33.102,26.728
472,1436607538960,4.907,-32.29,27.429
473,1436607538984,4.907,-31.698,28.004
474,1436607539000,4.907,-30.882,28.004
475,1436607539022,4.907,-30.882,28.771
476,1436607539040,4.907,-30.047,29.797
477,1436607539066,4.907,-30.047,29.797
478,1436607539081,5.409,-29.721,29.797
479,1436607539099,7.931,-29.267,28.55
480,1436607539121,10.96,-29.267,27.403
481,1436607539143,13.957,-28.657,27.403
482,1436607539161,16.458,-28.657,26.593
483,1436607539180,18.196,-28.038,26.039
484,1436607539201,19.645,-27.468,25.611
485,1436607539223,20.919,-27.468,24.946
486,1436607539239,22.171,-27.468,24.052
487,1436607539262,23.002,-27.468,23.074
488,1436607539296,23.649,-26.844,22.166
489,1436607539299,24.539,-26.844,21.029
490,1436607539319,25.035,-27.323,20.307
491,1436607539339,25.035,-27.323,19.291
492,1436607539362,25.663,-27.323,19.291
493,1436607539382,25.663,-27.323,18.638
494,1436607539403,26.158,-27.323,17.683
495,1436607539423,26.695,-27.323,16.896
496,1436607539440,26.695,-26.98,16.896
