id,attr_time,attr_x,attr_y,attr_z
1,1436622551010,-2.023,-36.802,-21.528
2,1436622551031,-2.023,-36.802,-21.528
3,1436622551048,-2.023,-36.802,-21.528
4,1436622551069,-2.023,-36.802,-21.528
5,1436622551090,-2.023,-36.802,-21.528
6,1436622551112,-2.023,-36.802,-21.528
7,1436622551133,-2.023,-36.802,-21.528
8,1436622551154,-2.023,-36.802,-21.528
9,1436622551169,-2.023,-36.802,-21.528
10,1436622551190,-2.023,-36.499,-21.528
11,1436622551211,-2.023,-36.499,-21.528
12,1436622551232,-2.023,-36.499,-21.528
13,1436622551258,-2.023,-36.499,-21.528
14,1436622551325,-2.023,-36.499,-21.528
15,1436622551328,-2.023,-36.499,-21.528
16,1436622551329,-1.722,-36.499,-21.528
17,1436622551330,-1.722,-36.499,-21.528
18,1436622551348,-1.722,-36.499,-21.528
19,1436622551374,-1.722,-36.499,-21.528
20,1436622551389,-1.722,-36.499,-21.528
21,1436622551409,-1.722,-36.499,-21.528
22,1436622551429,-1.722,-36.499,-21.528
23,1436622551449,-1.722,-36.499,-21.528
24,1436622551469,-1.722,-36.499,-21.528
25,1436622551489,-1.722,-36.499,-21.528
26,1436622551510,-1.722,-36.499,-21.528
27,1436622551530,-1.722,-36.499,-21.528
28,1436622551549,-1.722,-36.499,-21.528
29,1436622551569,-1.722,-36.499,-21.528
30,1436622551588,-1.722,-36.499,-21.528
31,1436622551611,-1.722,-36.499,-21.528
32,1436622551631,-1.722,-36.499,-21.528
33,1436622551650,-1.722,-36.499,-21.528
34,1436622551669,-1.722,-36.499,-21.528
35,1436622551689,-1.722,-36.499,-21.528
36,1436622551709,-1.722,-36.499,-21.528
37,1436622551735,-1.722,-36.499,-21.528
38,1436622551750,-1.722,-36.499,-21.528
39,1436622551769,-1.722,-36.499,-21.528
40,1436622551803,-1.722,-36.499,-21.528
41,1436622551830,-1.722,-36.499,-21.528
42,1436622551831,-1.722,-36.499,-21.528
43,1436622551849,-1.722,-36.499,-21.528
44,1436622551873,-1.722,-36.499,-21.528
45,1436622551891,-1.722,-36.499,-21.528
46,1436622551911,-1.722,-36.499,-21.528
47,1436622551931,-1.722,-36.499,-21.528
48,1436622551951,-1.722,-36.499,-21.528
49,1436622551971,-1.722,-36.499,-21.528
50,1436622551997,-1.722,-36.499,-21.528
51,1436622552072,-1.722,-36.499,-21.528
52,1436622552073,-1.722,-36.499,-21.528
53,1436622552076,-1.722,-36.499,-21.528
54,1436622552077,-1.722,-36.499,-21.528
55,1436622552089,-1.722,-36.499,-21.528
56,1436622552114,-1.722,-36.499,-21.528
57,1436622552129,-1.722,-36.499,-21.528
58,1436622552151,-1.722,-36.499,-21.528
59,1436622552183,-1.722,-36.499,-21.528
60,1436622552191,-1.722,-36.499,-21.528
61,1436622552210,-1.722,-36.499,-21.528
62,1436622552231,-1.722,-36.499,-21.528
63,1436622552251,-1.722,-36.499,-21.528
64,1436622552273,-1.722,-36.499,-21.528
65,1436622552292,-1.722,-36.499,-21.528
66,1436622552311,-1.722,-36.499,-21.528
67,1436622552331,-1.722,-36.499,-21.528
68,1436622552351,-1.722,-36.499,-21.528
69,1436622552378,-1.722,-36.499,-21.528
70,1436622552423,-1.722,-36.499,-21.528
71,1436622552424,-1.722,-36.499,-21.528
72,1436622552436,-1.722,-36.499,-21.528
73,1436622552449,-1.722,-36.499,-21.228
74,1436622552469,-1.722,-36.499,-21.228
75,1436622552489,-1.722,-36.499,-21.228
76,1436622552509,-1.722,-36.499,-21.228
77,1436622552534,-1.722,-36.499,-21.228
78,1436622552549,-1.722,-36.499,-21.228
79,1436622552579,-1.722,-36.808,-21.228
80,1436622552605,-1.722,-36.808,-21.228
81,1436622552616,-1.722,-36.808,-21.228
82,1436622552633,-2.027,-36.808,-21.228
83,1436622552655,-2.027,-36.808,-21.228
84,1436622552677,-2.027,-36.808,-21.228
85,1436622552690,-2.027,-36.808,-21.228
86,1436622552738,-2.027,-36.808,-21.228
87,1436622552739,-2.027,-36.808,-21.228
88,1436622552757,-2.027,-36.808,-21.228
89,1436622552774,-2.027,-36.808,-21.228
90,1436622552789,-2.027,-36.808,-21.228
91,1436622552833,-2.027,-36.808,-21.228
92,1436622552834,-2.027,-36.808,-21.228
93,1436622552850,-2.027,-36.808,-21.228
94,1436622552869,-2.027,-36.808,-21.228
95,1436622552890,-2.352,-36.808,-21.228
96,1436622552909,-2.352,-36.808,-21.228
97,1436622552929,-2.352,-36.808,-21.228
98,1436622552948,-2.352,-36.808,-21.228
99,1436622552968,-2.352,-36.808,-21.228
100,1436622552988,-2.352,-36.808,-21.228
101,1436622553009,-2.352,-36.808,-21.228
102,1436622553029,-2.352,-36.808,-21.228
103,1436622553049,-2.352,-36.808,-21.228
104,1436622553069,-2.352,-36.808,-21.228
105,1436622553089,-2.352,-36.808,-21.228
106,1436622553109,-2.352,-36.808,-21.228
107,1436622553129,-2.352,-36.808,-21.228
108,1436622553149,-2.352,-36.808,-21.228
109,1436622553171,-2.352,-36.808,-21.228
110,1436622553192,-2.352,-36.808,-21.228
111,1436622553210,-2.352,-36.808,-21.228
112,1436622553231,-2.352,-36.808,-21.228
113,1436622553252,-2.352,-36.808,-21.228
114,1436622553271,-2.352,-36.808,-21.228
115,1436622553291,-2.352,-36.808,-21.228
116,1436622553311,-2.352,-36.808,-21.228
117,1436622553330,-2.352,-36.808,-21.228
118,1436622553351,-2.352,-36.808,-21.228
119,1436622553417,-2.352,-36.808,-21.228
120,1436622553418,-2.352,-36.808,-21.228
121,1436622553419,-2.352,-36.808,-21.228
122,1436622553432,-2.352,-36.808,-21.228
123,1436622553450,-2.352,-36.808,-21.228
124,1436622553474,-2.352,-36.808,-21.228
125,1436622553489,-2.352,-36.808,-21.228
126,1436622553510,-2.047,-36.808,-21.228
127,1436622553530,-2.047,-36.808,-21.228
128,1436622553550,-2.047,-36.808,-21.228
129,1436622553570,-2.047,-36.808,-21.228
130,1436622553591,-2.047,-36.808,-21.228
131,1436622553611,-2.047,-36.808,-21.228
132,1436622553630,-2.047,-36.808,-21.228
133,1436622553649,-2.047,-36.808,-21.228
134,1436622553671,-2.047,-36.808,-21.228
135,1436622553691,-2.047,-36.808,-21.228
136,1436622553712,-2.047,-36.808,-21.533
137,1436622553732,-2.047,-36.808,-21.533
138,1436622553751,-2.047,-36.808,-21.533
139,1436622553772,-2.047,-36.808,-21.533
140,1436622553791,-2.047,-36.808,-21.533
141,1436622553811,-2.047,-36.808,-21.533
142,1436622553831,-2.047,-36.808,-21.533
143,1436622553850,-2.047,-36.808,-21.533
144,1436622553872,-2.047,-36.808,-21.533
145,1436622553893,-2.047,-36.808,-21.533
146,1436622553914,-2.047,-36.808,-21.533
147,1436622553933,-2.047,-36.808,-21.533
148,1436622553951,-2.047,-36.808,-21.533
149,1436622553971,-2.047,-36.808,-21.533
150,1436622553991,-2.047,-36.808,-21.533
151,1436622554011,-2.047,-36.808,-21.533
152,1436622554089,-2.047,-36.808,-21.533
153,1436622554091,-2.047,-36.808,-21.533
154,1436622554092,-2.047,-36.808,-21.214
155,1436622554093,-2.047,-36.808,-21.214
156,1436622554112,-2.047,-36.808,-21.214
157,1436622554136,-2.047,-36.808,-21.214
158,1436622554152,-2.047,-36.808,-21.214
159,1436622554173,-2.047,-36.808,-21.214
160,1436622554192,-2.047,-36.808,-21.214
161,1436622554211,-2.047,-36.808,-21.214
162,1436622554232,-2.047,-36.808,-21.214
163,1436622554251,-2.047,-36.808,-21.214
164,1436622554272,-2.047,-36.808,-21.214
165,1436622554292,-2.047,-36.808,-21.214
166,1436622554312,-2.047,-36.808,-21.214
167,1436622554333,-2.047,-36.808,-21.214
168,1436622554351,-2.047,-36.808,-21.214
169,1436622554372,-2.047,-36.808,-21.214
170,1436622554391,-2.047,-36.808,-21.214
171,1436622554411,-2.047,-36.808,-21.214
172,1436622554431,-2.047,-36.808,-21.214
173,1436622554451,-2.047,-36.808,-21.214
174,1436622554473,-2.047,-36.808,-21.214
175,1436622554493,-2.047,-36.808,-21.214
176,1436622554514,-2.047,-36.808,-21.214
177,1436622554532,-2.047,-36.808,-21.214
178,1436622554557,-2.047,-36.808,-21.214
179,1436622554572,-2.047,-36.808,-21.214
180,1436622554597,-2.047,-36.808,-21.214
181,1436622554611,-2.047,-36.808,-21.214
182,1436622554632,-2.047,-36.808,-21.214
183,1436622554652,-2.047,-36.808,-21.214
184,1436622554673,-2.047,-36.808,-21.214
185,1436622554691,-2.047,-36.808,-21.524
186,1436622554795,-2.047,-36.808,-21.524
187,1436622554796,-2.047,-36.808,-21.524
188,1436622554797,-2.047,-36.808,-21.524
189,1436622554798,-2.047,-36.808,-21.524
190,1436622554799,-2.047,-36.808,-21.524
191,1436622554818,-2.047,-36.808,-21.524
192,1436622554831,-2.047,-36.808,-21.524
193,1436622554858,-2.047,-36.808,-21.524
194,1436622554893,-2.047,-36.808,-21.524
195,1436622554894,-2.047,-36.808,-21.524
196,1436622554916,-2.047,-36.808,-21.524
197,1436622554932,-2.047,-36.808,-21.524
198,1436622554954,-2.047,-36.808,-21.524
199,1436622554975,-2.047,-36.808,-21.524
200,1436622554993,-2.047,-36.808,-21.524
201,1436622555013,-2.047,-36.808,-21.524
202,1436622555031,-2.047,-36.808,-21.524
203,1436622555052,-2.047,-36.808,-21.524
204,1436622555072,-2.047,-36.808,-21.524
205,1436622555094,-2.047,-36.808,-21.524
206,1436622555113,-2.047,-36.808,-21.524
207,1436622555133,-2.047,-36.808,-21.524
208,1436622555152,-2.047,-36.808,-21.524
209,1436622555173,-2.047,-36.808,-21.524
210,1436622555194,-2.047,-36.808,-21.524
211,1436622555213,-2.047,-36.808,-21.524
212,1436622555232,-2.047,-36.808,-21.524
213,1436622555252,-2.047,-36.808,-21.524
214,1436622555272,-2.047,-36.808,-21.524
215,1436622555292,-2.047,-36.808,-21.524
216,1436622555339,-2.047,-36.808,-21.524
217,1436622555340,-2.047,-36.808,-21.524
218,1436622555352,-2.047,-36.808,-21.524
219,1436622555372,-2.047,-36.808,-21.524
220,1436622555392,-2.047,-36.485,-21.524
221,1436622555412,-2.047,-36.485,-21.524
222,1436622555432,-2.047,-36.485,-21.524
223,1436622555486,-2.047,-36.485,-21.524
224,1436622555487,-2.047,-36.485,-21.524
225,1436622555515,-2.047,-36.485,-21.524
226,1436622555516,-2.047,-36.485,-21.524
227,1436622555549,-2.047,-36.485,-21.844
228,1436622555561,-2.047,-36.485,-21.844
229,1436622555574,-2.047,-36.485,-21.844
230,1436622555592,-2.047,-36.485,-21.844
231,1436622555613,-2.047,-36.485,-21.844
232,1436622555632,-2.047,-36.485,-21.844
233,1436622555665,-2.047,-36.485,-21.844
234,1436622555672,-2.047,-36.485,-22.155
235,1436622555694,-2.047,-36.485,-22.155
236,1436622555712,-2.047,-36.485,-22.155
237,1436622555736,-2.047,-36.485,-22.155
238,1436622555754,-2.047,-36.485,-22.155
239,1436622555772,-2.047,-36.485,-22.155
240,1436622555793,-2.047,-36.485,-22.155
241,1436622555815,-2.047,-36.485,-22.155
242,1436622555835,-2.047,-36.485,-22.155
243,1436622555853,-2.047,-36.485,-22.155
244,1436622555874,-2.047,-36.485,-22.155
245,1436622555894,-2.047,-36.485,-22.155
246,1436622555913,-2.047,-36.485,-22.155
247,1436622555933,-2.047,-36.485,-22.155
248,1436622555956,-2.047,-36.485,-22.155
249,1436622555975,-2.047,-36.485,-22.155
250,1436622555995,-2.047,-36.485,-22.155
251,1436622556016,-2.047,-36.485,-22.155
252,1436622556038,-2.047,-36.485,-22.155
253,1436622556055,-2.351,-36.485,-22.155
254,1436622556074,-2.351,-36.485,-22.155
255,1436622556093,-2.351,-36.485,-22.155
256,1436622556113,-2.351,-36.485,-22.155
257,1436622556137,-2.351,-36.485,-21.836
258,1436622556156,-2.351,-36.485,-21.836
259,1436622556176,-2.351,-36.485,-21.836
260,1436622556195,-2.351,-36.485,-21.836
261,1436622556286,-2.351,-36.485,-21.836
262,1436622556350,-2.351,-36.485,-21.836
263,1436622556351,-2.351,-36.485,-21.836
264,1436622556353,-2.351,-36.485,-21.836
265,1436622556354,-2.351,-36.485,-21.836
266,1436622556355,-2.351,-36.485,-21.836
267,1436622556356,-2.351,-36.485,-21.836
268,1436622556357,-2.351,-36.485,-21.836
269,1436622556374,-2.351,-36.485,-21.836
270,1436622556393,-2.351,-36.485,-21.516
271,1436622556413,-2.351,-36.485,-21.516
272,1436622556448,-2.351,-36.485,-21.516
273,1436622556453,-2.351,-36.485,-21.516
274,1436622556474,-2.351,-36.485,-21.516
275,1436622556493,-2.351,-36.485,-21.516
276,1436622556515,-2.351,-36.485,-21.516
277,1436622556533,-2.351,-36.485,-21.516
278,1436622556560,-2.351,-36.485,-21.516
279,1436622556579,-2.351,-36.485,-21.516
280,1436622556593,-2.351,-36.485,-21.516
281,1436622556614,-2.351,-36.485,-21.516
282,1436622556633,-2.351,-36.485,-21.516
283,1436622556653,-2.351,-36.485,-21.516
284,1436622556688,-2.351,-36.485,-21.516
285,1436622556693,-2.351,-36.485,-21.516
286,1436622556725,-2.351,-36.485,-21.516
287,1436622556736,-2.351,-36.485,-21.516
288,1436622556756,-2.351,-36.485,-21.516
289,1436622556777,-2.351,-36.485,-21.516
290,1436622556794,-2.351,-36.485,-21.516
291,1436622556813,-2.351,-36.485,-21.516
292,1436622556837,-2.351,-36.485,-21.179
293,1436622556856,-2.351,-36.485,-21.179
294,1436622556877,-2.351,-36.485,-21.179
295,1436622556897,-2.351,-36.788,-21.179
296,1436622556914,-2.351,-36.788,-21.179
297,1436622556933,-2.351,-36.788,-21.179
298,1436622556957,-2.351,-36.788,-21.179
299,1436622556974,-2.351,-36.788,-21.179
300,1436622556998,-2.351,-36.788,-21.179
301,1436622557019,-2.351,-36.788,-21.179
302,1436622557032,-2.351,-36.788,-21.179
303,1436622557052,-2.351,-36.788,-21.179
304,1436622557074,-2.351,-36.788,-21.179
305,1436622557098,-2.668,-36.788,-21.179
306,1436622557113,-2.668,-36.788,-21.179
307,1436622557134,-2.668,-36.788,-21.179
308,1436622557157,-2.668,-36.788,-21.179
309,1436622557175,-2.668,-36.788,-21.179
310,1436622557193,-2.668,-36.788,-21.179
311,1436622557216,-2.668,-36.788,-21.179
312,1436622557234,-2.668,-36.788,-21.179
313,1436622557257,-2.668,-36.788,-21.179
314,1436622557278,-2.668,-36.788,-21.179
315,1436622557295,-2.668,-36.788,-21.179
316,1436622557315,-2.668,-36.788,-21.179
317,1436622557334,-2.668,-36.788,-21.179
318,1436622557358,-2.668,-36.788,-21.179
319,1436622557377,-2.668,-36.788,-21.179
320,1436622557397,-2.668,-36.788,-21.179
321,1436622557416,-2.668,-36.788,-21.179
322,1436622557436,-2.668,-36.788,-21.179
323,1436622557455,-2.668,-36.788,-21.179
324,1436622557473,-2.668,-36.788,-21.179
325,1436622557494,-2.668,-36.788,-21.179
326,1436622557514,-2.668,-36.788,-21.179
327,1436622557537,-2.668,-36.788,-21.179
328,1436622557557,-2.668,-36.788,-21.179
329,1436622557573,-2.668,-36.788,-21.179
330,1436622557594,-2.668,-36.788,-21.179
331,1436622557662,-2.668,-36.788,-21.179
332,1436622557663,-2.668,-36.788,-21.179
333,1436622557664,-2.668,-36.788,-21.179
334,1436622557675,-2.668,-36.788,-21.179
335,1436622557694,-2.668,-36.788,-21.179
336,1436622557714,-2.668,-36.788,-21.179
337,1436622557736,-2.668,-36.788,-21.179
338,1436622557754,-2.668,-36.788,-21.179
339,1436622557775,-2.668,-36.788,-21.179
340,1436622557797,-2.668,-36.788,-21.179
341,1436622557815,-2.668,-36.788,-21.179
342,1436622557838,-2.668,-36.788,-21.179
343,1436622557854,-2.668,-36.788,-21.179
344,1436622557877,-2.668,-36.788,-21.179
345,1436622557898,-2.668,-36.788,-21.179
346,1436622557917,-2.668,-36.788,-21.179
347,1436622557938,-2.668,-36.788,-21.179
348,1436622557958,-2.668,-36.788,-21.179
349,1436622557977,-2.668,-36.788,-21.507
350,1436622557996,-2.668,-36.788,-21.507
351,1436622558014,-2.668,-36.788,-21.507
352,1436622558040,-2.668,-36.788,-21.507
353,1436622558056,-2.668,-36.788,-21.507
354,1436622558079,-2.668,-36.788,-21.507
355,1436622558100,-2.354,-36.788,-21.507
356,1436622558119,-2.354,-36.788,-21.507
357,1436622558139,-2.354,-36.788,-21.507
358,1436622558156,-2.354,-36.788,-21.507
359,1436622558177,-2.354,-36.788,-21.507
360,1436622558195,-2.354,-36.788,-21.507
361,1436622558219,-2.354,-36.788,-21.507
362,1436622558241,-2.354,-36.788,-21.507
363,1436622558260,-2.354,-36.788,-21.507
364,1436622558277,-2.354,-36.788,-21.507
365,1436622558301,-2.354,-36.788,-21.507
366,1436622558370,-2.354,-36.788,-21.507
367,1436622558371,-2.354,-36.788,-21.507
368,1436622558372,-2.354,-36.788,-21.507
369,1436622558378,-2.354,-36.788,-21.507
370,1436622558398,-2.354,-36.788,-21.202
371,1436622558420,-2.354,-36.788,-21.202
372,1436622558435,-2.354,-36.788,-21.202
373,1436622558455,-2.354,-36.788,-21.202
374,1436622558490,-2.354,-36.788,-21.202
375,1436622558496,-2.354,-36.788,-21.202
376,1436622558518,-2.354,-36.788,-21.202
377,1436622558540,-2.354,-36.788,-21.202
378,1436622558563,-2.354,-36.788,-21.202
379,1436622558578,-2.354,-36.788,-21.202
380,1436622558597,-2.354,-36.788,-21.202
381,1436622558615,-2.354,-36.788,-21.202
382,1436622558638,-2.354,-36.788,-21.202
383,1436622558658,-2.354,-36.788,-21.202
384,1436622558678,-2.354,-36.788,-21.202
385,1436622558698,-2.354,-36.788,-21.202
386,1436622558718,-2.354,-36.788,-21.202
387,1436622558738,-2.354,-36.788,-21.202
388,1436622558755,-2.354,-36.788,-21.202
389,1436622558776,-2.354,-36.788,-21.202
390,1436622558797,-2.354,-36.788,-21.202
391,1436622558817,-2.354,-36.788,-21.202
392,1436622558836,-2.354,-36.788,-21.202
393,1436622558856,-2.354,-36.788,-21.202
394,1436622558876,-2.354,-36.788,-21.202
395,1436622558896,-2.354,-36.788,-21.202
396,1436622558915,-2.354,-36.788,-20.898
397,1436622558937,-2.354,-36.788,-20.898
398,1436622558955,-2.354,-36.788,-20.898
399,1436622558977,-2.354,-36.788,-20.898
400,1436622558998,-2.354,-36.788,-20.898
401,1436622559017,-2.354,-36.788,-20.898
402,1436622559037,-2.354,-36.788,-20.898
403,1436622559120,-2.354,-36.788,-20.898
404,1436622559121,-2.354,-36.788,-20.898
405,1436622559123,-2.354,-36.788,-20.898
406,1436622559124,-2.354,-36.788,-20.898
407,1436622559148,-2.354,-36.788,-20.593
408,1436622559157,-2.354,-36.788,-20.593
409,1436622559186,-2.354,-36.788,-20.593
410,1436622559195,-2.354,-36.788,-20.593
411,1436622559215,-2.354,-36.788,-20.593
412,1436622559235,-2.354,-36.788,-20.593
413,1436622559258,-2.354,-36.788,-20.593
414,1436622559277,-2.354,-36.788,-20.593
415,1436622559299,-2.354,-36.788,-20.593
416,1436622559316,-2.354,-36.788,-20.593
417,1436622559337,-2.354,-36.788,-20.593
418,1436622559361,-2.354,-36.788,-20.593
419,1436622559378,-2.354,-36.788,-20.593
420,1436622559399,-2.354,-37.098,-20.593
421,1436622559418,-2.354,-37.098,-20.593
422,1436622559437,-2.354,-37.098,-20.593
423,1436622559456,-2.354,-37.098,-20.593
424,1436622559477,-2.354,-37.098,-20.593
425,1436622559500,-2.667,-37.098,-20.593
426,1436622559517,-2.667,-37.098,-20.593
427,1436622559538,-2.667,-37.098,-20.593
428,1436622559563,-2.667,-37.098,-20.593
429,1436622559589,-2.667,-37.098,-20.593
430,1436622559601,-2.667,-37.098,-20.593
431,1436622559617,-2.667,-37.098,-20.593
432,1436622559636,-2.667,-37.098,-20.593
433,1436622559656,-2.667,-37.098,-20.593
434,1436622559676,-2.667,-37.098,-20.593
435,1436622559699,-2.667,-37.098,-20.593
436,1436622559716,-2.667,-37.098,-20.593
437,1436622559736,-2.667,-37.098,-20.593
438,1436622559756,-2.667,-37.098,-20.593
439,1436622559783,-2.667,-37.098,-20.941
440,1436622559818,-2.667,-37.098,-20.941
441,1436622559819,-2.667,-37.098,-20.941
442,1436622559843,-2.667,-37.098,-20.941
443,1436622559860,-2.667,-37.098,-20.941
444,1436622559877,-2.667,-37.098,-20.941
445,1436622559897,-2.667,-37.098,-20.941
446,1436622559917,-2.667,-36.796,-20.941
447,1436622559936,-2.667,-36.796,-20.941
448,1436622559956,-2.667,-36.796,-20.941
449,1436622559976,-2.667,-36.796,-20.941
450,1436622559997,-2.667,-36.796,-20.941
451,1436622560023,-2.667,-36.796,-21.249
452,1436622560037,-2.667,-36.796,-21.249
453,1436622560061,-2.667,-36.796,-21.249
454,1436622560076,-2.667,-36.796,-21.249
455,1436622560098,-2.667,-36.796,-21.249
456,1436622560117,-2.667,-36.796,-21.249
457,1436622560137,-2.667,-36.796,-21.249
458,1436622560156,-2.667,-36.796,-21.249
459,1436622560177,-2.667,-36.796,-21.249
460,1436622560200,-2.667,-36.796,-21.249
461,1436622560216,-2.667,-36.796,-21.249
462,1436622560236,-2.667,-36.796,-21.249
463,1436622560256,-2.667,-36.796,-21.249
464,1436622560276,-2.667,-36.796,-21.249
465,1436622560296,-2.667,-36.796,-21.249
466,1436622560316,-2.667,-36.796,-21.249
467,1436622560337,-2.667,-36.796,-21.249
468,1436622560356,-2.667,-36.796,-21.249
469,1436622560376,-2.667,-36.796,-21.249
470,1436622560397,-2.667,-36.796,-21.249
471,1436622560416,-2.667,-36.796,-21.249
472,1436622560437,-2.667,-36.796,-21.249
473,1436622560457,-2.667,-36.796,-21.249
474,1436622560476,-2.667,-36.796,-21.249
475,1436622560497,-2.667,-36.796,-21.249
476,1436622560520,-2.667,-36.796,-21.249
477,1436622560537,-2.667,-36.796,-21.249
478,1436622560556,-2.667,-36.796,-21.249
479,1436622560576,-2.667,-36.796,-21.249
480,1436622560597,-2.667,-36.796,-21.249
481,1436622560616,-2.667,-36.796,-21.249
482,1436622560637,-2.667,-36.796,-20.933
483,1436622560656,-2.667,-36.796,-20.933
484,1436622560677,-2.667,-36.796,-20.933
485,1436622560697,-2.667,-36.796,-20.6
486,1436622560716,-2.667,-37.124,-20.6
487,1436622560736,-2.667,-37.124,-20.147
488,1436622560756,-2.667,-37.124,-19.195
489,1436622560776,-2.993,-37.467,-18.185
