id,attr_time,attr_x,attr_y,attr_z
1,1436622551022,9.082,-42.03,-22.549
2,1436622551044,9.082,-42.03,-22.549
3,1436622551096,9.082,-42.03,-22.549
4,1436622551097,9.082,-42.03,-22.549
5,1436622551102,9.082,-42.03,-22.549
6,1436622551121,9.082,-42.03,-22.549
7,1436622551140,9.082,-42.03,-22.549
8,1436622551159,9.082,-42.03,-22.549
9,1436622551180,9.082,-42.03,-22.549
10,1436622551199,9.082,-42.03,-22.549
11,1436622551220,9.082,-42.03,-22.549
12,1436622551240,9.082,-42.03,-22.549
13,1436622551260,9.082,-42.03,-22.549
14,1436622551280,9.082,-42.03,-22.549
15,1436622551299,9.082,-42.03,-22.549
16,1436622551319,9.082,-42.03,-22.549
17,1436622551342,9.082,-42.03,-22.549
18,1436622551362,9.384,-42.03,-22.549
19,1436622551380,9.384,-42.03,-22.549
20,1436622551402,9.384,-42.03,-22.549
21,1436622551422,9.384,-42.03,-22.549
22,1436622551441,9.384,-42.03,-22.549
23,1436622551462,9.384,-42.03,-22.549
24,1436622551482,9.384,-42.03,-22.549
25,1436622551502,9.384,-42.03,-22.549
26,1436622551521,9.384,-42.03,-22.549
27,1436622551542,9.384,-42.03,-22.549
28,1436622551559,9.384,-41.717,-22.549
29,1436622551583,9.384,-41.717,-22.549
30,1436622551601,9.384,-41.717,-22.549
31,1436622551626,9.384,-41.717,-22.549
32,1436622551639,9.384,-41.717,-22.549
33,1436622551659,9.687,-41.717,-22.549
34,1436622551679,9.687,-41.717,-22.549
35,1436622551700,9.687,-41.717,-22.549
36,1436622551719,9.687,-41.717,-22.549
37,1436622551742,9.687,-41.717,-22.549
38,1436622551764,9.687,-41.717,-22.549
39,1436622551780,9.687,-41.717,-22.549
40,1436622551833,9.687,-41.717,-22.549
41,1436622551834,9.687,-41.717,-22.233
42,1436622551853,9.687,-41.717,-22.233
43,1436622551860,9.687,-41.717,-22.233
44,1436622551891,9.687,-41.717,-22.233
45,1436622551902,9.687,-41.717,-22.233
46,1436622551919,9.687,-41.717,-22.233
47,1436622551940,9.687,-41.717,-22.233
48,1436622551960,9.687,-41.717,-21.932
49,1436622551982,9.687,-41.717,-21.932
50,1436622552000,9.687,-41.717,-21.932
51,1436622552022,9.687,-41.717,-21.932
52,1436622552043,9.687,-41.717,-21.932
53,1436622552063,9.687,-41.717,-21.932
54,1436622552083,9.687,-41.717,-21.932
55,1436622552101,9.687,-41.717,-21.932
56,1436622552124,9.687,-41.717,-21.932
57,1436622552143,9.687,-41.717,-21.932
58,1436622552163,9.687,-41.717,-21.932
59,1436622552183,9.687,-41.717,-21.932
60,1436622552200,9.687,-41.717,-21.932
61,1436622552220,9.687,-41.717,-21.932
62,1436622552241,9.687,-41.717,-21.932
63,1436622552260,9.687,-41.717,-21.932
64,1436622552280,9.687,-41.717,-21.932
65,1436622552300,9.687,-41.717,-21.932
66,1436622552320,9.687,-41.406,-21.932
67,1436622552341,9.349,-41.406,-21.932
68,1436622552360,9.349,-41.406,-21.932
69,1436622552380,9.349,-41.406,-21.932
70,1436622552400,9.349,-41.406,-22.279
71,1436622552420,9.349,-41.406,-22.279
72,1436622552442,9.349,-41.406,-22.279
73,1436622552488,9.349,-41.406,-22.279
74,1436622552489,9.349,-41.406,-22.279
75,1436622552532,9.349,-41.406,-22.279
76,1436622552533,9.349,-41.406,-22.279
77,1436622552545,9.349,-41.406,-22.279
78,1436622552562,9.349,-41.406,-22.279
79,1436622552580,9.022,-41.406,-22.589
80,1436622552600,9.022,-41.406,-22.589
81,1436622552620,9.022,-41.406,-22.589
82,1436622552641,9.022,-41.406,-22.589
83,1436622552670,9.022,-41.406,-22.589
84,1436622552689,9.022,-41.406,-22.589
85,1436622552700,9.022,-41.406,-22.589
86,1436622552720,9.022,-41.406,-22.589
87,1436622552750,9.022,-41.406,-22.589
88,1436622552766,9.022,-41.406,-22.589
89,1436622552787,9.022,-41.406,-22.589
90,1436622552804,9.022,-41.406,-22.589
91,1436622552820,9.022,-41.406,-22.589
92,1436622552841,9.022,-41.406,-22.589
93,1436622552860,9.022,-41.406,-22.589
94,1436622552880,9.022,-41.406,-22.589
95,1436622552899,9.022,-41.406,-22.589
96,1436622552920,9.022,-41.406,-22.589
97,1436622552940,9.022,-41.406,-22.589
98,1436622552962,9.022,-41.406,-22.589
99,1436622552984,9.022,-41.406,-22.589
100,1436622553000,9.022,-41.406,-22.589
101,1436622553021,9.022,-41.406,-22.589
102,1436622553040,9.022,-41.406,-22.589
103,1436622553062,9.022,-41.406,-22.589
104,1436622553084,9.022,-41.406,-22.589
105,1436622553104,9.022,-41.406,-22.589
106,1436622553124,9.022,-41.716,-22.589
107,1436622553140,9.022,-41.716,-22.589
108,1436622553162,9.022,-41.716,-22.589
109,1436622553181,9.022,-41.716,-22.589
110,1436622553202,9.022,-41.716,-22.589
111,1436622553230,9.022,-41.716,-22.589
112,1436622553244,9.022,-41.716,-22.589
113,1436622553260,9.022,-41.716,-22.589
114,1436622553280,9.022,-41.716,-22.589
115,1436622553301,9.022,-41.716,-22.589
116,1436622553323,9.022,-41.716,-22.589
117,1436622553341,9.022,-41.716,-22.589
118,1436622553365,9.022,-41.716,-22.589
119,1436622553385,9.022,-41.716,-22.589
120,1436622553405,9.022,-41.716,-22.589
121,1436622553422,9.022,-41.716,-22.589
122,1436622553442,9.022,-41.716,-22.589
123,1436622553465,9.022,-41.716,-22.589
124,1436622553481,9.022,-41.716,-22.589
125,1436622553501,9.022,-41.716,-22.589
126,1436622553521,9.022,-41.716,-22.589
127,1436622553545,9.022,-41.716,-22.589
128,1436622553564,9.022,-41.716,-22.589
129,1436622553583,9.022,-41.716,-22.589
130,1436622553604,9.022,-41.395,-22.589
131,1436622553622,9.022,-41.395,-22.589
132,1436622553640,9.022,-41.395,-22.589
133,1436622553661,9.022,-41.395,-22.589
134,1436622553685,9.022,-41.395,-22.589
135,1436622553705,9.022,-41.395,-22.589
136,1436622553722,9.33,-41.395,-22.589
137,1436622553745,9.33,-41.395,-22.589
138,1436622553761,9.33,-41.395,-22.589
139,1436622553781,9.33,-41.395,-22.589
140,1436622553801,9.33,-41.395,-22.589
141,1436622553823,9.33,-41.395,-22.589
142,1436622553843,9.33,-41.395,-22.589
143,1436622553874,9.33,-41.395,-22.589
144,1436622553883,9.33,-41.395,-22.589
145,1436622553902,9.33,-41.395,-22.589
146,1436622553926,9.33,-41.395,-22.589
147,1436622553943,9.33,-41.395,-22.589
148,1436622553961,9.635,-41.395,-22.589
149,1436622553981,9.635,-41.395,-22.589
150,1436622554004,9.635,-41.395,-22.589
151,1436622554022,9.635,-41.395,-22.589
152,1436622554042,9.635,-41.395,-22.589
153,1436622554062,9.635,-41.395,-22.589
154,1436622554084,9.635,-41.395,-22.589
155,1436622554104,9.635,-41.395,-22.589
156,1436622554124,9.635,-41.395,-22.589
157,1436622554144,9.635,-41.395,-22.589
158,1436622554164,9.635,-41.395,-22.589
159,1436622554184,9.635,-41.395,-22.589
160,1436622554204,9.635,-41.395,-22.589
161,1436622554224,9.635,-41.395,-22.589
162,1436622554244,9.635,-41.395,-22.589
163,1436622554265,9.635,-41.395,-22.589
164,1436622554283,9.635,-41.395,-22.589
165,1436622554304,9.635,-41.395,-22.589
166,1436622554324,9.635,-41.395,-22.589
167,1436622554343,9.635,-41.395,-22.589
168,1436622554364,9.635,-41.395,-22.589
169,1436622554385,9.635,-41.395,-22.589
170,1436622554405,9.635,-41.395,-22.589
171,1436622554424,9.635,-41.395,-22.589
172,1436622554445,9.635,-41.395,-22.589
173,1436622554464,9.635,-41.395,-22.589
174,1436622554483,9.635,-41.395,-22.589
175,1436622554504,9.635,-41.395,-22.589
176,1436622554523,9.635,-41.395,-22.589
177,1436622554542,9.635,-41.395,-22.589
178,1436622554606,9.635,-41.395,-22.589
179,1436622554617,9.635,-41.395,-22.589
180,1436622554618,9.635,-41.395,-22.589
181,1436622554625,9.635,-41.395,-22.589
182,1436622554642,9.635,-41.395,-22.589
183,1436622554662,9.635,-41.395,-22.589
184,1436622554682,9.635,-41.702,-22.589
185,1436622554702,9.635,-41.702,-22.589
186,1436622554724,9.635,-41.702,-22.589
187,1436622554745,9.635,-41.702,-22.589
188,1436622554763,9.635,-41.702,-22.589
189,1436622554783,9.635,-41.702,-22.589
190,1436622554803,9.635,-41.702,-22.239
191,1436622554826,9.635,-41.702,-22.239
192,1436622554847,9.635,-41.702,-22.239
193,1436622554865,9.635,-41.702,-22.239
194,1436622554886,9.635,-41.702,-22.239
195,1436622554906,9.635,-41.702,-21.914
196,1436622554926,9.635,-41.702,-21.914
197,1436622554946,9.635,-41.702,-21.914
198,1436622554965,9.635,-41.702,-21.914
199,1436622554986,9.635,-41.702,-21.914
200,1436622555004,9.635,-41.702,-21.914
201,1436622555024,9.635,-41.702,-21.914
202,1436622555046,9.635,-41.702,-21.914
203,1436622555064,9.635,-41.702,-21.914
204,1436622555087,9.635,-41.4,-21.914
205,1436622555103,9.635,-41.4,-21.914
206,1436622555125,9.635,-41.4,-21.914
207,1436622555146,9.635,-41.4,-21.914
208,1436622555166,9.635,-41.4,-21.914
209,1436622555185,9.635,-41.4,-21.914
210,1436622555205,9.635,-41.4,-21.914
211,1436622555223,9.635,-41.4,-21.914
212,1436622555244,9.635,-41.4,-21.914
213,1436622555264,9.635,-41.4,-21.914
214,1436622555283,9.635,-41.4,-21.914
215,1436622555328,9.635,-41.4,-21.914
216,1436622555329,9.635,-41.4,-21.914
217,1436622555352,9.635,-41.4,-21.914
218,1436622555363,9.635,-41.4,-21.914
219,1436622555387,9.635,-41.4,-21.914
220,1436622555403,9.635,-41.4,-21.914
221,1436622555423,9.635,-41.705,-21.914
222,1436622555444,9.635,-41.705,-21.914
223,1436622555463,9.635,-41.705,-21.914
224,1436622555485,9.635,-41.705,-21.914
225,1436622555507,9.635,-41.705,-21.914
226,1436622555523,9.635,-41.705,-21.914
227,1436622555545,9.635,-41.705,-21.914
228,1436622555564,9.635,-41.705,-21.914
229,1436622555586,9.635,-41.705,-21.914
230,1436622555606,9.635,-41.705,-21.914
231,1436622555626,9.635,-41.705,-21.914
232,1436622555646,9.635,-41.705,-21.914
233,1436622555664,9.635,-41.705,-21.914
234,1436622555685,9.635,-41.705,-21.914
235,1436622555706,9.635,-41.705,-21.914
236,1436622555726,9.635,-41.705,-21.914
237,1436622555745,9.635,-41.705,-21.914
238,1436622555766,9.635,-41.705,-21.914
239,1436622555784,9.635,-41.705,-21.914
240,1436622555805,9.635,-41.705,-21.914
241,1436622555826,9.635,-41.705,-21.914
242,1436622555845,9.635,-41.705,-21.914
243,1436622555867,9.635,-41.705,-21.914
244,1436622555885,9.635,-41.705,-21.914
245,1436622555905,9.635,-41.705,-21.914
246,1436622555927,9.635,-41.705,-21.914
247,1436622555945,9.635,-41.705,-21.914
248,1436622555965,9.635,-41.705,-22.233
249,1436622555983,9.635,-41.705,-22.233
250,1436622556008,9.635,-41.705,-22.233
251,1436622556078,9.635,-41.705,-22.233
252,1436622556079,9.292,-41.705,-22.233
253,1436622556082,9.292,-41.705,-22.233
254,1436622556083,9.292,-41.705,-22.233
255,1436622556104,9.292,-41.705,-22.233
256,1436622556124,9.292,-41.705,-22.233
257,1436622556143,9.292,-41.705,-22.233
258,1436622556164,9.292,-41.705,-22.233
259,1436622556184,9.292,-41.705,-22.583
260,1436622556204,9.292,-41.705,-22.583
261,1436622556225,9.292,-41.705,-22.583
262,1436622556245,9.292,-41.705,-22.583
263,1436622556264,9.292,-41.705,-22.583
264,1436622556285,9.292,-41.705,-22.583
265,1436622556305,9.292,-41.705,-22.583
266,1436622556326,9.292,-41.705,-22.583
267,1436622556344,9.292,-41.705,-22.583
268,1436622556365,9.292,-41.705,-22.583
269,1436622556384,9.292,-41.705,-22.583
270,1436622556405,9.292,-41.705,-22.583
271,1436622556427,9.292,-41.705,-22.583
272,1436622556445,9.292,-41.705,-22.583
273,1436622556465,9.292,-41.705,-22.583
274,1436622556484,9.292,-41.705,-22.583
275,1436622556505,9.292,-41.705,-22.583
276,1436622556526,9.292,-41.705,-22.583
277,1436622556546,9.292,-41.705,-22.583
278,1436622556567,9.292,-41.705,-22.583
279,1436622556585,9.292,-41.705,-22.583
280,1436622556605,9.292,-41.705,-22.583
281,1436622556627,9.292,-41.705,-22.583
282,1436622556647,9.292,-41.705,-22.583
283,1436622556666,9.292,-41.705,-22.583
284,1436622556688,9.292,-41.705,-22.583
285,1436622556705,9.292,-41.705,-22.583
286,1436622556726,9.292,-41.705,-22.583
287,1436622556749,9.292,-41.705,-22.583
288,1436622556805,9.292,-41.705,-22.583
289,1436622556833,9.292,-41.705,-22.583
290,1436622556834,9.292,-41.705,-22.583
291,1436622556835,9.292,-41.705,-22.583
292,1436622556854,9.292,-41.705,-22.583
293,1436622556867,9.292,-41.705,-22.583
294,1436622556885,9.292,-41.705,-22.583
295,1436622556904,9.292,-41.705,-22.583
296,1436622556924,9.292,-41.705,-22.583
297,1436622556944,9.292,-41.705,-22.583
298,1436622556971,9.292,-41.705,-22.583
299,1436622556984,9.292,-41.705,-22.583
300,1436622557004,9.292,-41.705,-22.583
301,1436622557025,9.292,-41.705,-22.583
302,1436622557044,9.292,-41.705,-22.583
303,1436622557064,9.292,-41.705,-22.583
304,1436622557084,9.292,-41.705,-22.583
305,1436622557104,9.292,-41.705,-22.583
306,1436622557124,9.292,-41.705,-22.583
307,1436622557144,9.292,-41.705,-22.583
308,1436622557164,9.292,-41.705,-22.583
309,1436622557185,9.292,-41.705,-22.583
310,1436622557204,9.292,-41.705,-22.583
311,1436622557224,9.292,-41.705,-22.583
312,1436622557245,9.292,-41.705,-22.583
313,1436622557265,9.292,-41.705,-22.583
314,1436622557285,9.292,-41.705,-22.583
315,1436622557305,9.292,-41.705,-22.583
316,1436622557325,9.292,-41.705,-22.583
317,1436622557345,9.292,-41.705,-22.583
318,1436622557365,9.292,-41.705,-22.583
319,1436622557385,9.292,-41.705,-22.583
320,1436622557405,9.292,-41.705,-22.583
321,1436622557425,8.987,-41.705,-22.583
322,1436622557446,8.987,-41.705,-22.583
323,1436622557464,8.987,-41.705,-22.583
324,1436622557484,8.987,-41.705,-22.583
325,1436622557504,8.987,-41.705,-22.583
326,1436622557524,8.987,-41.705,-22.583
327,1436622557544,8.987,-41.705,-22.583
328,1436622557565,8.987,-41.705,-22.583
329,1436622557586,8.987,-41.705,-22.583
330,1436622557605,8.987,-41.705,-22.583
331,1436622557628,8.987,-41.705,-22.583
332,1436622557646,8.987,-41.705,-22.583
333,1436622557665,8.987,-41.705,-22.583
334,1436622557686,8.987,-41.705,-22.583
335,1436622557704,8.987,-41.705,-22.583
336,1436622557729,8.682,-41.705,-22.583
337,1436622557747,8.682,-41.705,-22.583
338,1436622557768,8.682,-41.705,-22.583
339,1436622557787,8.682,-41.705,-22.583
340,1436622557806,8.682,-41.705,-22.583
341,1436622557825,8.682,-41.705,-22.583
342,1436622557845,8.682,-41.705,-22.583
343,1436622557867,8.682,-41.705,-22.583
344,1436622557887,8.682,-41.705,-22.583
345,1436622557907,8.682,-41.705,-22.583
346,1436622557929,8.682,-41.705,-22.583
347,1436622557947,8.682,-41.705,-22.583
348,1436622557969,8.682,-41.705,-22.583
349,1436622557990,8.682,-41.705,-22.583
350,1436622558006,8.682,-41.705,-22.583
351,1436622558029,8.682,-41.705,-22.583
352,1436622558047,8.682,-41.705,-22.583
353,1436622558066,8.682,-41.705,-22.583
354,1436622558087,8.682,-41.705,-22.583
355,1436622558107,8.682,-41.705,-22.583
356,1436622558172,8.682,-41.705,-22.583
357,1436622558173,8.682,-41.705,-22.583
358,1436622558174,8.682,-41.705,-22.583
359,1436622558185,8.682,-41.705,-22.583
360,1436622558208,8.682,-41.705,-22.583
361,1436622558226,8.682,-41.705,-22.583
362,1436622558246,8.682,-41.705,-22.583
363,1436622558268,8.682,-41.705,-22.583
364,1436622558285,8.682,-41.705,-22.583
365,1436622558309,8.682,-41.705,-22.583
366,1436622558329,8.682,-41.705,-22.583
367,1436622558348,8.682,-41.705,-22.583
368,1436622558366,8.682,-41.705,-22.583
369,1436622558387,8.682,-41.705,-22.583
370,1436622558409,8.682,-41.705,-22.583
371,1436622558427,8.682,-41.705,-22.583
372,1436622558447,9.001,-41.705,-22.583
373,1436622558469,9.001,-41.705,-22.267
374,1436622558489,9.001,-41.705,-22.267
375,1436622558509,9.001,-41.705,-22.267
376,1436622558534,9.001,-41.705,-22.267
377,1436622558546,9.001,-41.705,-22.267
378,1436622558566,9.347,-41.705,-22.267
379,1436622558591,9.347,-41.705,-22.267
380,1436622558606,9.347,-41.705,-22.267
381,1436622558632,9.347,-41.705,-22.267
382,1436622558651,9.347,-41.705,-22.267
383,1436622558670,9.347,-41.705,-22.267
384,1436622558688,9.347,-41.705,-22.267
385,1436622558706,9.347,-41.705,-22.267
386,1436622558726,9.654,-41.705,-22.267
387,1436622558747,9.654,-41.705,-22.267
388,1436622558772,9.654,-41.705,-22.267
389,1436622558793,9.654,-41.705,-22.267
390,1436622558813,9.654,-41.705,-22.267
391,1436622558828,9.654,-41.705,-22.267
392,1436622558850,9.654,-41.705,-22.267
393,1436622558917,9.654,-41.705,-22.267
394,1436622558918,9.654,-41.705,-22.267
395,1436622558919,9.654,-41.705,-22.267
396,1436622558926,9.654,-41.705,-22.267
397,1436622558948,9.654,-41.705,-22.267
398,1436622558967,9.33,-41.705,-22.267
399,1436622558986,9.33,-41.705,-22.267
400,1436622559011,9.33,-41.705,-22.267
401,1436622559027,9.33,-41.705,-22.267
402,1436622559048,9.33,-41.705,-22.267
403,1436622559073,9.33,-41.705,-22.267
404,1436622559088,9.33,-41.705,-22.267
405,1436622559107,9.33,-41.705,-22.267
406,1436622559130,9.33,-41.705,-22.267
407,1436622559150,9.33,-41.705,-22.267
408,1436622559169,9.33,-41.705,-22.267
409,1436622559190,9.024,-41.705,-22.586
410,1436622559211,9.024,-41.705,-22.586
411,1436622559230,9.024,-41.705,-22.586
412,1436622559250,9.024,-41.705,-22.586
413,1436622559270,9.024,-41.705,-22.586
414,1436622559290,9.024,-41.705,-22.586
415,1436622559308,9.024,-41.705,-22.586
416,1436622559330,9.024,-41.705,-22.586
417,1436622559350,9.024,-41.705,-22.586
418,1436622559370,9.024,-41.705,-22.586
419,1436622559390,9.024,-41.705,-22.586
420,1436622559410,9.024,-41.705,-22.586
421,1436622559431,9.024,-41.705,-22.586
422,1436622559450,9.024,-41.705,-22.586
423,1436622559467,9.024,-41.705,-22.586
424,1436622559495,9.024,-41.705,-22.586
425,1436622559512,9.024,-41.705,-22.586
426,1436622559531,9.024,-41.705,-22.586
427,1436622559550,9.024,-41.705,-22.586
428,1436622559572,9.024,-41.705,-22.586
429,1436622559627,9.024,-41.705,-22.586
430,1436622559650,9.024,-41.705,-22.586
431,1436622559651,9.024,-41.705,-22.586
432,1436622559652,9.024,-41.705,-22.586
433,1436622559668,9.024,-41.705,-22.586
434,1436622559692,9.024,-41.705,-22.586
435,1436622559707,9.024,-41.705,-22.586
436,1436622559734,9.024,-41.705,-22.586
437,1436622559747,9.024,-41.705,-22.586
438,1436622559770,9.024,-41.705,-22.586
439,1436622559789,9.024,-41.705,-22.586
440,1436622559810,9.024,-41.705,-22.586
441,1436622559833,9.024,-41.705,-22.586
442,1436622559849,9.024,-41.705,-22.586
443,1436622559870,9.024,-41.705,-22.586
444,1436622559890,9.024,-41.705,-22.586
445,1436622559910,9.024,-41.705,-22.586
446,1436622559931,9.024,-41.705,-22.586
447,1436622559950,9.024,-41.705,-22.586
448,1436622559970,9.024,-41.705,-22.586
449,1436622559990,9.024,-41.705,-22.586
450,1436622560010,9.024,-41.705,-22.586
451,1436622560027,9.024,-41.705,-22.586
452,1436622560051,9.024,-41.705,-22.586
453,1436622560071,9.024,-41.705,-22.586
454,1436622560090,9.024,-41.705,-22.586
455,1436622560110,9.024,-41.705,-22.282
456,1436622560130,9.024,-42.021,-22.282
457,1436622560151,9.024,-42.021,-22.282
458,1436622560171,9.024,-42.021,-22.282
459,1436622560191,9.024,-42.021,-22.282
460,1436622560211,9.024,-42.021,-21.946
461,1436622560231,9.024,-42.021,-21.946
462,1436622560251,9.024,-42.021,-21.946
463,1436622560270,9.024,-42.021,-21.946
464,1436622560292,9.024,-42.021,-21.946
465,1436622560354,9.024,-42.021,-21.946
466,1436622560365,9.024,-42.021,-21.946
467,1436622560367,9.024,-42.021,-21.618
468,1436622560368,9.329,-42.021,-21.618
469,1436622560396,9.329,-42.021,-21.618
470,1436622560409,9.329,-42.021,-21.618
471,1436622560431,9.329,-42.021,-21.618
472,1436622560523,9.329,-42.021,-21.618
473,1436622560524,9.329,-42.021,-21.618
474,1436622560590,9.329,-42.021,-21.618
475,1436622560591,9.329,-42.021,-21.618
476,1436622560592,9.329,-42.021,-21.618
477,1436622560593,9.329,-42.021,-21.618
478,1436622560594,9.329,-42.021,-21.618
479,1436622560595,9.329,-42.021,-21.618
480,1436622560624,9.329,-42.021,-21.618
481,1436622560628,9.329,-42.021,-21.618
482,1436622560770,9.329,-42.021,-21.955
483,1436622560771,9.329,-41.685,-21.955
484,1436622560772,9.329,-41.685,-21.955
485,1436622560773,9.329,-41.685,-21.955
486,1436622560774,9.329,-41.685,-21.955
487,1436622560775,9.329,-41.685,-21.955
488,1436622560776,9.329,-41.685,-22.257
489,1436622560814,9.329,-41.685,-22.257
490,1436622560815,9.329,-41.685,-22.257
491,1436622560828,9.329,-41.685,-22.257
492,1436622560852,9.329,-41.685,-22.257
493,1436622560868,9.329,-41.685,-22.257
494,1436622560892,9.329,-41.685,-22.257
495,1436622560912,9.329,-41.685,-22.572
496,1436622560931,9.329,-41.685,-22.572
497,1436622560950,9.329,-41.685,-22.572
498,1436622560970,9.329,-41.685,-22.572
499,1436622560988,9.329,-41.685,-22.572
500,1436622561010,9.329,-41.685,-22.572
501,1436622561031,9.329,-41.685,-22.572
502,1436622561050,9.329,-41.685,-22.572
503,1436622561070,9.329,-41.685,-22.572
