id,attr_time,attr_x,attr_y,attr_z
1,1436622551003,8.731,-4.592,-15.554
2,1436622551016,8.731,-4.592,-15.554
3,1436622551040,8.731,-4.592,-15.554
4,1436622551060,8.731,-4.592,-15.554
5,1436622551076,8.731,-4.592,-15.554
6,1436622551097,8.731,-4.592,-15.554
7,1436622551116,8.731,-4.592,-15.554
8,1436622551140,8.731,-4.592,-15.554
9,1436622551160,8.731,-4.592,-15.554
10,1436622551177,8.731,-4.592,-15.554
11,1436622551196,8.731,-4.592,-15.554
12,1436622551218,8.731,-4.592,-15.554
13,1436622551240,8.731,-4.592,-15.554
14,1436622551260,8.731,-4.592,-15.859
15,1436622551279,8.731,-4.592,-15.859
16,1436622551299,8.731,-4.592,-15.859
17,1436622551320,9.063,-4.592,-15.859
18,1436622551339,9.063,-4.592,-15.859
19,1436622551359,9.063,-4.592,-15.859
20,1436622551380,9.063,-4.592,-15.859
21,1436622551396,9.063,-4.592,-15.859
22,1436622551420,9.063,-4.592,-15.859
23,1436622551440,9.063,-4.592,-15.859
24,1436622551459,9.063,-4.592,-15.859
25,1436622551479,9.063,-4.592,-15.859
26,1436622551500,9.063,-4.592,-15.859
27,1436622551519,9.063,-4.592,-15.859
28,1436622551540,9.063,-4.592,-15.859
29,1436622551560,9.063,-4.592,-15.859
30,1436622551580,9.063,-4.592,-15.859
31,1436622551601,9.063,-4.592,-15.859
32,1436622551620,9.063,-4.592,-15.859
33,1436622551640,9.063,-4.592,-15.859
34,1436622551661,9.063,-4.592,-15.859
35,1436622551717,9.063,-4.592,-15.859
36,1436622551728,9.063,-4.592,-15.859
37,1436622551729,9.063,-4.592,-15.859
38,1436622551740,9.063,-4.592,-15.859
39,1436622551758,9.063,-4.592,-15.859
40,1436622551779,9.063,-4.592,-15.859
41,1436622551796,9.063,-4.592,-15.859
42,1436622551817,9.063,-4.592,-15.859
43,1436622551838,8.757,-4.592,-15.859
44,1436622551863,8.757,-4.592,-15.859
45,1436622551880,8.757,-4.592,-15.859
46,1436622551896,8.757,-4.592,-15.859
47,1436622551916,8.757,-4.592,-15.859
48,1436622551939,8.757,-4.592,-15.859
49,1436622551960,8.401,-4.592,-15.544
50,1436622551980,8.401,-4.592,-15.544
51,1436622552000,8.401,-4.592,-15.544
52,1436622552020,8.401,-4.592,-15.544
53,1436622552040,8.401,-4.592,-15.544
54,1436622552060,8.401,-4.592,-15.544
55,1436622552080,8.09,-4.592,-15.544
56,1436622552101,8.09,-4.592,-15.544
57,1436622552118,8.09,-4.592,-15.544
58,1436622552140,8.09,-4.592,-15.544
59,1436622552160,8.09,-4.592,-15.544
60,1436622552180,8.09,-4.592,-15.544
61,1436622552200,8.09,-4.592,-15.544
62,1436622552220,8.09,-4.592,-15.544
63,1436622552240,8.09,-4.592,-15.544
64,1436622552260,8.09,-4.592,-15.544
65,1436622552280,8.09,-4.592,-15.544
66,1436622552301,8.09,-4.592,-15.544
67,1436622552321,8.09,-4.592,-15.544
68,1436622552341,8.09,-4.592,-15.544
69,1436622552361,8.09,-4.592,-15.544
70,1436622552380,8.09,-4.592,-15.544
71,1436622552435,8.09,-4.592,-15.544
72,1436622552450,8.09,-4.592,-15.544
73,1436622552451,8.09,-4.592,-15.544
74,1436622552461,8.09,-4.592,-15.544
75,1436622552477,8.09,-4.592,-15.544
76,1436622552510,8.09,-4.592,-15.544
77,1436622552534,8.09,-4.592,-15.544
78,1436622552537,8.09,-4.592,-15.544
79,1436622552559,8.09,-4.592,-15.544
80,1436622552578,8.09,-4.592,-15.544
81,1436622552599,8.09,-4.592,-15.544
82,1436622552621,8.09,-4.592,-15.544
83,1436622552643,8.09,-4.592,-15.544
84,1436622552659,8.09,-4.592,-15.544
85,1436622552681,8.09,-4.592,-15.544
86,1436622552701,8.09,-4.592,-15.544
87,1436622552721,8.09,-4.592,-15.544
88,1436622552741,8.09,-4.592,-15.544
89,1436622552761,8.09,-4.592,-15.544
90,1436622552781,8.09,-4.592,-15.544
91,1436622552801,8.09,-4.592,-15.544
92,1436622552819,8.09,-4.592,-15.847
93,1436622552841,8.09,-4.592,-15.847
94,1436622552861,8.09,-4.592,-15.847
95,1436622552880,8.09,-4.592,-15.847
96,1436622552900,8.09,-4.592,-15.847
97,1436622552919,8.09,-4.592,-15.847
98,1436622552941,8.09,-4.592,-15.847
99,1436622552962,8.09,-4.592,-15.847
100,1436622552982,8.09,-4.592,-15.847
101,1436622553001,8.09,-4.592,-15.847
102,1436622553020,8.09,-4.592,-15.847
103,1436622553038,8.09,-4.592,-15.847
104,1436622553059,8.09,-4.592,-15.847
105,1436622553081,8.09,-4.592,-15.847
106,1436622553098,8.09,-4.592,-15.847
107,1436622553155,8.09,-4.592,-15.847
108,1436622553160,7.756,-4.592,-15.847
109,1436622553161,7.756,-4.913,-15.847
110,1436622553180,7.756,-4.913,-15.528
111,1436622553201,7.756,-4.913,-15.528
112,1436622553222,7.756,-4.913,-15.528
113,1436622553238,7.756,-4.913,-15.528
114,1436622553264,7.756,-4.913,-15.528
115,1436622553278,7.756,-4.913,-15.528
116,1436622553299,7.756,-4.913,-15.528
117,1436622553322,7.447,-4.913,-15.528
118,1436622553340,7.447,-4.913,-15.528
119,1436622553362,7.447,-4.913,-15.528
120,1436622553381,7.447,-4.913,-15.528
121,1436622553401,7.447,-4.913,-15.528
122,1436622553421,7.447,-4.913,-15.528
123,1436622553441,7.447,-4.913,-15.528
124,1436622553461,7.447,-4.913,-15.528
125,1436622553481,7.447,-4.913,-15.528
126,1436622553501,7.447,-4.913,-15.528
127,1436622553521,7.447,-4.913,-15.528
128,1436622553541,7.447,-4.913,-15.528
129,1436622553559,7.447,-4.913,-15.528
130,1436622553582,7.447,-4.913,-15.528
131,1436622553601,7.447,-4.913,-15.528
132,1436622553620,7.447,-4.913,-15.528
133,1436622553640,7.754,-4.913,-15.528
134,1436622553662,7.754,-4.913,-15.528
135,1436622553682,7.754,-4.913,-15.528
136,1436622553702,7.754,-4.913,-15.528
137,1436622553722,7.754,-4.913,-15.528
138,1436622553743,8.065,-4.913,-15.841
139,1436622553761,8.065,-4.913,-15.841
140,1436622553781,8.065,-4.913,-15.841
141,1436622553801,8.065,-4.913,-15.841
142,1436622553820,8.065,-4.913,-15.841
143,1436622553872,8.065,-4.913,-15.841
144,1436622553873,8.065,-4.913,-15.841
145,1436622553911,8.065,-4.913,-15.841
146,1436622553912,8.065,-4.913,-15.841
147,1436622553918,8.065,-4.913,-15.841
148,1436622553940,8.065,-4.913,-15.841
149,1436622553959,8.065,-4.913,-15.841
150,1436622554006,8.065,-4.913,-15.841
151,1436622554007,8.065,-4.913,-15.841
152,1436622554026,8.065,-4.913,-15.841
153,1436622554039,8.065,-4.913,-15.841
154,1436622554059,8.065,-4.913,-15.841
155,1436622554079,8.065,-4.913,-15.841
156,1436622554102,8.065,-4.913,-15.841
157,1436622554122,8.065,-4.913,-15.841
158,1436622554142,8.065,-4.913,-15.841
159,1436622554162,8.065,-4.913,-15.841
160,1436622554182,8.065,-4.913,-15.841
161,1436622554202,8.065,-4.913,-15.841
162,1436622554222,8.065,-4.913,-15.841
163,1436622554242,8.065,-4.913,-15.841
164,1436622554262,8.065,-4.913,-15.841
165,1436622554280,8.065,-4.913,-15.841
166,1436622554302,8.065,-4.913,-15.841
167,1436622554322,8.065,-4.913,-15.841
168,1436622554342,8.399,-4.609,-15.841
169,1436622554362,8.399,-4.609,-15.841
170,1436622554382,8.399,-4.609,-15.841
171,1436622554402,8.399,-4.609,-16.157
172,1436622554423,8.399,-4.609,-16.157
173,1436622554442,8.399,-4.609,-16.157
174,1436622554463,8.399,-4.609,-16.157
175,1436622554483,8.399,-4.609,-16.157
176,1436622554503,8.728,-4.609,-16.157
177,1436622554521,8.728,-4.609,-16.157
178,1436622554548,8.728,-4.609,-16.157
179,1436622554606,8.728,-4.609,-16.157
180,1436622554618,8.728,-4.609,-16.157
181,1436622554621,8.728,-4.609,-16.157
182,1436622554622,8.728,-4.609,-16.157
183,1436622554642,8.728,-4.609,-16.157
184,1436622554662,8.728,-4.609,-16.157
185,1436622554681,8.728,-4.609,-16.157
186,1436622554701,8.728,-4.609,-16.157
187,1436622554721,8.728,-4.609,-16.157
188,1436622554742,8.728,-4.609,-16.157
189,1436622554761,8.728,-4.609,-16.157
190,1436622554780,8.728,-4.609,-16.157
191,1436622554803,8.728,-4.609,-16.157
192,1436622554830,8.422,-4.609,-16.157
193,1436622554841,8.422,-4.609,-16.157
194,1436622554863,8.422,-4.609,-16.157
195,1436622554883,8.422,-4.609,-15.855
196,1436622554903,8.422,-4.609,-15.855
197,1436622554923,8.422,-4.609,-15.855
198,1436622554943,8.422,-4.609,-15.855
199,1436622554963,8.422,-4.609,-15.855
200,1436622554983,8.422,-4.609,-15.855
201,1436622555002,8.422,-4.609,-15.855
202,1436622555021,8.422,-4.609,-15.855
203,1436622555043,8.422,-4.609,-15.855
204,1436622555062,8.422,-4.609,-15.855
205,1436622555081,8.422,-4.609,-15.855
206,1436622555101,8.422,-4.609,-15.855
207,1436622555123,8.422,-4.609,-15.855
208,1436622555143,8.093,-4.609,-15.855
209,1436622555163,8.093,-4.609,-15.855
210,1436622555183,8.093,-4.609,-15.855
211,1436622555202,8.093,-4.609,-15.855
212,1436622555222,8.093,-4.609,-15.855
213,1436622555242,8.093,-4.609,-15.855
214,1436622555263,8.093,-4.609,-15.855
215,1436622555286,8.093,-4.609,-15.855
216,1436622555401,8.093,-4.609,-15.855
217,1436622555402,8.093,-4.609,-15.855
218,1436622555403,8.093,-4.609,-15.855
219,1436622555404,8.093,-4.609,-15.855
220,1436622555405,8.093,-4.609,-15.855
221,1436622555406,8.093,-4.609,-15.855
222,1436622555425,8.093,-4.609,-15.855
223,1436622555458,8.093,-4.609,-15.855
224,1436622555461,8.093,-4.609,-15.855
225,1436622555480,8.093,-4.609,-15.855
226,1436622555504,8.093,-4.609,-15.855
227,1436622555521,8.093,-4.609,-15.855
228,1436622555541,8.093,-4.609,-15.855
229,1436622555563,8.093,-4.609,-15.855
230,1436622555581,8.093,-4.609,-15.855
231,1436622555603,8.093,-4.609,-15.855
232,1436622555623,8.093,-4.609,-15.855
233,1436622555644,8.093,-4.609,-15.855
234,1436622555664,8.093,-4.609,-15.855
235,1436622555684,8.093,-4.609,-15.855
236,1436622555704,8.093,-4.609,-15.855
237,1436622555724,8.093,-4.609,-15.855
238,1436622555743,8.093,-4.609,-15.855
239,1436622555764,8.093,-4.609,-15.855
240,1436622555783,8.093,-4.609,-15.855
241,1436622555801,8.093,-4.609,-15.855
242,1436622555822,8.093,-4.609,-15.855
243,1436622555844,8.093,-4.609,-15.855
244,1436622555861,8.093,-4.609,-15.855
245,1436622555881,8.093,-4.609,-15.855
246,1436622555902,7.775,-4.609,-15.855
247,1436622555925,7.775,-4.609,-15.855
248,1436622555946,7.775,-4.609,-15.855
249,1436622555966,7.775,-4.609,-15.855
250,1436622555984,7.775,-4.609,-15.855
251,1436622556001,7.775,-4.609,-15.855
252,1436622556021,7.775,-4.609,-15.855
253,1436622556041,7.775,-4.609,-15.855
254,1436622556063,7.775,-4.609,-15.855
255,1436622556081,7.775,-4.609,-15.855
256,1436622556134,7.775,-4.609,-15.855
257,1436622556135,7.775,-4.609,-15.855
258,1436622556141,7.775,-4.609,-15.855
259,1436622556161,7.775,-4.609,-15.855
260,1436622556182,7.775,-4.609,-15.855
261,1436622556201,7.775,-4.609,-15.855
262,1436622556221,7.775,-4.609,-15.855
263,1436622556245,7.431,-4.609,-15.855
264,1436622556261,7.431,-4.609,-15.855
265,1436622556281,7.431,-4.609,-15.855
266,1436622556301,7.431,-4.609,-15.855
267,1436622556322,7.431,-4.91,-15.855
268,1436622556344,7.431,-4.91,-15.855
269,1436622556364,7.431,-4.91,-15.855
270,1436622556384,7.431,-4.91,-15.855
271,1436622556404,7.431,-4.91,-15.855
272,1436622556424,7.107,-4.91,-15.855
273,1436622556444,7.107,-4.91,-15.855
274,1436622556464,7.107,-4.91,-15.855
275,1436622556484,7.107,-4.91,-15.855
276,1436622556504,7.107,-4.91,-15.855
277,1436622556523,7.107,-4.91,-15.855
278,1436622556542,7.107,-4.91,-15.855
279,1436622556564,7.107,-4.91,-15.855
280,1436622556584,7.107,-4.91,-15.855
281,1436622556605,7.107,-4.91,-15.855
282,1436622556624,7.107,-4.91,-15.855
283,1436622556643,7.107,-4.91,-15.855
284,1436622556664,7.107,-4.91,-15.855
285,1436622556684,7.107,-4.91,-15.855
286,1436622556705,7.107,-4.91,-15.855
287,1436622556725,7.107,-4.91,-15.855
288,1436622556745,7.107,-4.91,-15.855
289,1436622556762,7.107,-4.91,-15.855
290,1436622556783,7.107,-4.91,-15.855
291,1436622556802,7.107,-4.91,-15.855
292,1436622556821,7.107,-4.91,-15.855
293,1436622556874,7.107,-4.91,-15.855
294,1436622556875,7.107,-4.91,-15.855
295,1436622556893,7.107,-4.91,-15.855
296,1436622556930,7.107,-4.91,-15.855
297,1436622556931,7.107,-4.91,-15.855
298,1436622556942,7.107,-4.91,-15.855
299,1436622556978,7.107,-4.91,-15.855
300,1436622556981,7.107,-4.91,-15.855
301,1436622557002,7.107,-4.91,-15.855
302,1436622557023,7.107,-4.91,-15.855
303,1436622557043,7.107,-4.91,-15.855
304,1436622557065,7.107,-4.91,-15.855
305,1436622557084,7.107,-4.91,-15.855
306,1436622557105,7.107,-4.91,-15.855
307,1436622557125,7.107,-4.91,-15.855
308,1436622557145,7.107,-4.91,-15.855
309,1436622557165,7.107,-4.91,-15.855
310,1436622557185,7.107,-4.91,-15.855
311,1436622557205,7.107,-4.91,-15.855
312,1436622557225,7.107,-4.91,-15.855
313,1436622557244,7.107,-4.91,-15.855
314,1436622557263,7.107,-4.91,-15.855
315,1436622557286,7.107,-4.91,-15.855
316,1436622557306,7.107,-4.91,-15.855
317,1436622557322,7.414,-4.91,-15.855
318,1436622557343,7.414,-4.91,-15.855
319,1436622557363,7.414,-4.91,-15.855
320,1436622557455,7.414,-4.91,-15.855
321,1436622557456,7.414,-4.91,-15.855
322,1436622557457,7.414,-4.91,-15.855
323,1436622557458,7.414,-4.91,-15.855
324,1436622557471,7.414,-4.91,-15.855
325,1436622557482,7.414,-4.91,-15.855
326,1436622557503,7.414,-4.91,-15.855
327,1436622557522,7.414,-4.91,-15.855
328,1436622557542,7.414,-4.91,-15.855
329,1436622557575,7.414,-4.91,-15.855
330,1436622557586,7.414,-4.91,-15.855
331,1436622557602,7.414,-4.91,-15.855
332,1436622557622,7.414,-4.91,-15.855
333,1436622557643,7.414,-4.91,-15.855
334,1436622557662,7.414,-4.91,-15.855
335,1436622557682,7.414,-4.91,-15.855
336,1436622557702,7.414,-4.91,-15.855
337,1436622557726,7.414,-4.91,-15.855
338,1436622557743,7.414,-4.91,-15.855
339,1436622557762,7.414,-4.91,-15.855
340,1436622557782,7.414,-4.91,-15.855
341,1436622557803,7.414,-4.91,-15.855
342,1436622557823,7.414,-4.91,-15.855
343,1436622557843,7.414,-4.91,-15.855
344,1436622557862,7.414,-4.91,-15.855
345,1436622557882,7.414,-4.91,-15.855
346,1436622557902,7.414,-4.91,-15.855
347,1436622557922,7.414,-4.91,-15.855
348,1436622557943,7.414,-4.91,-15.855
349,1436622557962,7.414,-4.91,-15.855
350,1436622557984,7.414,-4.91,-15.855
351,1436622558002,7.414,-4.91,-15.855
352,1436622558024,7.414,-4.91,-15.855
353,1436622558043,7.414,-4.91,-15.855
354,1436622558063,7.414,-4.91,-15.855
355,1436622558082,7.414,-4.91,-15.855
356,1436622558104,7.414,-4.91,-15.855
357,1436622558124,7.414,-4.91,-15.855
358,1436622558144,7.414,-4.91,-15.855
359,1436622558163,7.414,-4.91,-15.855
360,1436622558182,7.414,-4.91,-15.855
361,1436622558202,7.414,-4.91,-15.855
362,1436622558223,7.414,-4.91,-15.855
363,1436622558243,7.414,-4.91,-15.855
364,1436622558262,7.414,-4.91,-15.855
365,1436622558282,7.414,-4.91,-15.855
366,1436622558338,7.414,-4.91,-15.855
367,1436622558339,7.414,-4.91,-15.855
368,1436622558342,7.414,-4.91,-15.855
369,1436622558362,7.414,-4.91,-15.855
370,1436622558382,7.414,-4.91,-15.855
371,1436622558403,7.414,-4.91,-15.855
372,1436622558422,7.414,-4.91,-15.855
373,1436622558442,7.084,-4.91,-15.855
374,1436622558462,7.084,-4.91,-15.855
375,1436622558482,7.084,-4.91,-15.855
376,1436622558502,7.084,-4.91,-15.855
377,1436622558522,7.084,-4.91,-15.542
378,1436622558542,7.084,-4.91,-15.542
379,1436622558562,7.084,-4.91,-15.542
380,1436622558582,7.084,-4.91,-15.542
381,1436622558602,6.777,-4.91,-15.542
382,1436622558622,6.777,-4.91,-15.542
383,1436622558642,6.777,-4.91,-15.542
384,1436622558662,6.777,-4.91,-15.542
385,1436622558685,6.777,-4.91,-15.542
386,1436622558704,6.777,-4.91,-15.542
387,1436622558724,6.777,-4.91,-15.542
388,1436622558742,6.777,-4.91,-15.542
389,1436622558764,6.777,-4.91,-15.542
390,1436622558783,6.777,-4.91,-15.542
391,1436622558804,6.777,-4.91,-15.542
392,1436622558824,6.777,-4.91,-15.542
393,1436622558843,6.777,-4.91,-15.542
394,1436622558863,6.777,-4.91,-15.542
395,1436622558883,6.777,-4.91,-15.542
396,1436622558908,7.081,-4.91,-15.542
397,1436622559005,7.081,-4.91,-15.542
398,1436622559017,7.081,-4.91,-15.542
399,1436622559018,7.081,-4.91,-15.542
400,1436622559019,7.081,-4.91,-15.542
401,1436622559020,7.081,-4.91,-15.542
402,1436622559033,7.081,-4.91,-15.542
403,1436622559044,7.081,-4.91,-15.542
404,1436622559064,7.081,-4.91,-15.542
405,1436622559083,7.081,-4.91,-15.542
406,1436622559111,7.081,-4.91,-15.542
407,1436622559124,7.081,-4.91,-15.542
408,1436622559147,7.081,-4.91,-15.542
409,1436622559169,7.081,-4.91,-15.542
410,1436622559184,7.081,-4.91,-15.863
411,1436622559204,7.081,-4.91,-15.863
412,1436622559225,7.081,-4.91,-15.863
413,1436622559247,7.081,-4.91,-15.863
414,1436622559267,7.081,-4.91,-15.863
415,1436622559287,7.081,-4.91,-15.863
416,1436622559307,7.081,-4.91,-15.863
417,1436622559324,7.081,-4.91,-15.863
418,1436622559347,7.081,-4.91,-15.863
419,1436622559367,7.081,-4.91,-15.863
420,1436622559387,7.081,-4.91,-15.863
421,1436622559406,7.081,-4.91,-15.863
422,1436622559427,7.081,-4.91,-15.863
423,1436622559447,7.081,-4.91,-15.863
424,1436622559467,7.081,-4.91,-15.863
425,1436622559487,7.081,-4.91,-15.863
426,1436622559506,7.385,-4.91,-15.863
427,1436622559524,7.385,-4.91,-15.863
428,1436622559547,7.385,-4.91,-15.863
429,1436622559567,7.385,-4.91,-15.863
430,1436622559584,7.385,-4.91,-15.863
431,1436622559604,7.385,-4.91,-15.863
432,1436622559624,7.385,-4.91,-15.863
433,1436622559644,7.707,-4.91,-16.178
434,1436622559664,7.707,-4.91,-16.178
435,1436622559684,7.707,-4.91,-16.178
436,1436622559714,7.707,-4.91,-16.178
437,1436622559726,7.707,-4.91,-16.178
438,1436622559744,7.707,-4.91,-16.178
439,1436622559764,7.707,-4.91,-16.178
440,1436622559784,7.707,-4.91,-16.178
441,1436622559804,7.707,-4.91,-16.482
442,1436622559824,7.707,-4.91,-16.482
443,1436622559845,7.707,-4.91,-16.482
444,1436622559865,7.707,-4.91,-16.482
445,1436622559887,7.707,-4.91,-16.482
446,1436622559908,7.707,-4.91,-16.482
447,1436622559926,7.707,-4.91,-16.482
448,1436622559946,7.707,-4.91,-16.482
449,1436622559964,7.377,-4.91,-16.482
450,1436622559988,7.377,-4.91,-16.482
451,1436622560006,7.064,-4.91,-16.482
452,1436622560025,7.064,-4.91,-16.482
453,1436622560048,6.239,-4.91,-16.18
454,1436622560065,5.679,-4.91,-16.18
455,1436622560088,5.023,-5.232,-16.18
456,1436622560108,4.44,-5.232,-16.18
457,1436622560126,4.44,-5.232,-16.18
458,1436622560145,3.489,-5.232,-16.18
459,1436622560168,2.905,-5.554,-16.18
460,1436622560186,2.192,-5.554,-16.18
461,1436622560207,1.281,-5.554,-16.18
462,1436622560225,0.578,-5.554,-16.18
463,1436622560247,-0.457,-5.946,-16.18
464,1436622560268,-1.155,-5.946,-16.18
465,1436622560287,-2.194,-5.946,-16.18
466,1436622560308,-3.005,-5.946,-16.18
467,1436622560326,-3.881,-6.314,-16.18
468,1436622560347,-4.719,-6.314,-16.18
469,1436622560367,-5.218,-6.314,-16.18
470,1436622560388,-6.524,-6.314,-16.18
471,1436622560407,-7.279,-6.639,-16.18
472,1436622560522,-8.38,-6.639,-16.18
473,1436622560525,-9.315,-6.639,-16.18
474,1436622560526,-10.331,-6.639,-16.18
475,1436622560527,-11.358,-6.942,-16.18
476,1436622560528,-12.278,-6.942,-16.18
477,1436622560529,-14.123,-6.942,-16.18
478,1436622560548,-14.968,-6.942,-16.18
479,1436622560577,-16.075,-6.942,-15.768
480,1436622560586,-16.885,-6.942,-15.768
481,1436622560605,-17.593,-6.942,-15.451
482,1436622560627,-18.412,-7.261,-15.451
483,1436622560645,-19.206,-7.261,-15.145
484,1436622560667,-19.902,-7.261,-14.822
485,1436622560686,-20.794,-7.261,-14.292
486,1436622560708,-21.482,-7.261,-13.76
487,1436622560726,-22.167,-7.261,-13.333
488,1436622560748,-22.862,-7.261,-13.02
489,1436622560768,-23.446,-7.261,-12.579
490,1436622560787,-24.125,-7.261,-12.579
491,1436622560808,-25.088,-7.261,-12.055
492,1436622560826,-25.088,-7.261,-12.055
493,1436622560847,-25.836,-7.261,-11.062
494,1436622560868,-26.603,-6.916,-11.062
495,1436622560888,-26.603,-6.916,-11.062
496,1436622560907,-27.148,-6.916,-11.062
497,1436622560929,-27.148,-6.582,-11.062
498,1436622560947,-27.148,-6.582,-11.062
499,1436622560966,-27.148,-6.582,-11.062
500,1436622560985,-27.148,-6.166,-11.062
501,1436622561005,-27.148,-6.166,-11.062
502,1436622561027,-27.539,-5.851,-11.062
503,1436622561048,-27.539,-5.851,-11.062
504,1436622561072,-27.539,-5.851,-10.707
505,1436622561088,-27.539,-5.401,-10.707
506,1436622561106,-27.539,-5.401,-10.707
507,1436622561126,-27.539,-5.091,-10.707
508,1436622561147,-27.539,-5.091,-10.707
509,1436622561166,-27.539,-4.757,-10.707
510,1436622561188,-27.539,-4.757,-11.383
511,1436622561250,-27.539,-4.406,-12.059
512,1436622561251,-27.539,-4.406,-12.736
513,1436622561252,-27.909,-4.046,-13.327
514,1436622561266,-27.909,-4.046,-13.327
515,1436622561288,-27.909,-3.729,-13.917
516,1436622561307,-27.909,-3.729,-13.917
517,1436622561328,-27.909,-3.729,-14.558
518,1436622561349,-27.909,-3.337,-15.295
519,1436622561367,-27.909,-3.337,-15.295
