id,attr_time,attr_x,attr_y,attr_z
1,1436622551026,-48.73,14.329,-10.29
2,1436622551046,-48.73,14.329,-10.29
3,1436622551065,-48.73,14.329,-10.29
4,1436622551085,-48.73,14.329,-10.29
5,1436622551128,-48.73,14.329,-10.29
6,1436622551132,-48.73,14.329,-10.29
7,1436622551143,-48.73,14.329,-10.29
8,1436622551163,-48.73,14.329,-10.29
9,1436622551182,-48.73,14.329,-10.29
10,1436622551205,-48.73,14.329,-10.29
11,1436622551221,-48.73,14.329,-10.29
12,1436622551244,-48.73,14.329,-10.29
13,1436622551265,-48.73,14.329,-10.29
14,1436622551282,-48.73,14.329,-10.29
15,1436622551306,-48.73,14.329,-10.29
16,1436622551324,-48.73,14.329,-10.29
17,1436622551344,-48.73,14.329,-10.29
18,1436622551364,-48.73,14.329,-10.29
19,1436622551385,-48.73,14.329,-10.29
20,1436622551404,-48.73,14.329,-10.29
21,1436622551424,-48.73,14.329,-10.29
22,1436622551444,-48.73,14.329,-10.29
23,1436622551465,-48.73,14.329,-10.29
24,1436622551484,-48.73,14.329,-10.29
25,1436622551503,-48.73,14.329,-10.29
26,1436622551523,-48.73,14.329,-10.29
27,1436622551545,-48.73,14.329,-10.29
28,1436622551562,-48.73,14.329,-10.29
29,1436622551582,-48.73,14.329,-10.29
30,1436622551602,-48.73,14.329,-10.29
31,1436622551622,-48.73,14.329,-9.967
32,1436622551644,-48.73,14.329,-9.967
33,1436622551668,-48.73,14.329,-9.967
34,1436622551685,-48.73,14.329,-9.967
35,1436622551703,-48.73,14.329,-9.967
36,1436622551725,-48.73,14.329,-9.967
37,1436622551742,-48.73,14.329,-9.967
38,1436622551763,-48.73,14.329,-9.967
39,1436622551786,-48.73,14.329,-9.967
40,1436622551848,-48.73,14.329,-9.967
41,1436622551860,-48.73,14.329,-9.967
42,1436622551861,-48.73,14.329,-9.66
43,1436622551866,-48.73,14.329,-9.66
44,1436622551882,-48.73,14.329,-9.66
45,1436622551903,-48.73,14.329,-9.66
46,1436622551922,-48.73,14.329,-9.66
47,1436622551946,-48.73,14.329,-9.66
48,1436622551963,-48.73,14.329,-9.66
49,1436622551983,-48.73,14.329,-9.66
50,1436622552008,-48.73,14.329,-9.66
51,1436622552023,-48.73,14.329,-9.66
52,1436622552044,-48.73,14.329,-9.66
53,1436622552065,-48.73,14.329,-9.344
54,1436622552086,-48.73,14.329,-9.344
55,1436622552106,-48.73,14.329,-9.344
56,1436622552126,-48.73,14.329,-9.344
57,1436622552143,-48.73,14.329,-9.344
58,1436622552165,-48.73,14.329,-9.344
59,1436622552186,-48.73,14.329,-9.344
60,1436622552206,-48.73,14.329,-9.344
61,1436622552226,-48.73,14.329,-9.344
62,1436622552243,-48.73,14.329,-9.344
63,1436622552265,-48.73,14.028,-9.344
64,1436622552286,-48.73,14.028,-9.344
65,1436622552306,-48.73,14.028,-9.344
66,1436622552326,-48.73,14.028,-9.344
67,1436622553873,-48.73,14.028,-9.344
68,1436622553874,-48.73,14.028,-9.344
69,1436622553875,-48.73,14.028,-9.344
70,1436622553876,-48.73,14.028,-9.344
71,1436622553877,-48.73,14.028,-9.344
72,1436622553878,-48.73,14.028,-9.344
73,1436622553879,-48.73,14.028,-9.344
74,1436622553880,-48.73,14.028,-9.344
75,1436622553881,-48.73,14.028,-9.344
76,1436622553882,-48.73,14.028,-9.344
77,1436622553883,-48.73,14.028,-9.344
78,1436622553884,-48.73,14.028,-9.344
79,1436622553885,-48.73,14.028,-9.344
80,1436622553886,-48.73,14.028,-9.344
81,1436622553887,-48.73,14.028,-9.344
82,1436622553888,-48.73,14.028,-9.03
83,1436622553889,-48.73,14.028,-9.03
84,1436622553890,-48.73,14.028,-9.03
85,1436622553891,-48.73,14.028,-9.03
86,1436622553892,-48.73,14.028,-9.03
87,1436622553893,-48.73,14.028,-9.03
88,1436622553894,-48.73,14.028,-9.03
89,1436622553895,-48.73,14.028,-9.03
90,1436622553896,-48.73,14.028,-9.03
91,1436622553897,-48.73,14.028,-9.03
92,1436622553898,-48.73,14.028,-9.03
93,1436622553899,-48.73,14.028,-9.03
94,1436622553900,-48.73,14.028,-9.03
95,1436622553901,-48.73,14.028,-9.03
96,1436622553902,-48.73,14.028,-9.03
97,1436622553903,-48.73,14.334,-9.03
98,1436622553904,-48.73,14.334,-9.03
99,1436622553905,-48.73,14.334,-9.368
100,1436622553906,-48.73,14.334,-9.368
101,1436622553907,-48.73,14.334,-9.368
102,1436622553908,-48.73,14.334,-9.368
103,1436622553909,-48.73,14.334,-9.368
104,1436622553910,-48.73,14.334,-9.368
105,1436622553911,-48.73,14.334,-9.713
106,1436622553912,-48.73,14.334,-9.713
107,1436622553913,-48.73,14.334,-9.713
108,1436622553914,-48.73,14.334,-9.713
109,1436622553915,-48.73,14.334,-9.713
110,1436622553916,-48.73,14.334,-9.713
111,1436622553917,-48.73,14.334,-10.055
112,1436622553918,-48.73,14.334,-10.055
113,1436622553919,-48.73,14.334,-10.055
114,1436622553920,-48.73,14.334,-10.055
115,1436622553921,-48.73,14.334,-10.055
116,1436622553922,-48.73,14.334,-10.055
117,1436622553923,-48.73,14.334,-10.055
118,1436622553924,-48.73,14.334,-10.055
119,1436622553925,-48.73,14.334,-10.055
120,1436622553926,-48.73,14.334,-10.055
121,1436622553927,-48.73,14.334,-10.055
122,1436622553928,-48.73,14.334,-10.055
123,1436622553929,-48.73,14.334,-10.055
124,1436622553930,-48.73,14.334,-10.055
125,1436622553931,-48.73,14.334,-10.368
126,1436622553932,-48.73,14.334,-10.368
127,1436622553933,-48.73,14.334,-10.368
128,1436622553934,-48.73,14.334,-10.368
129,1436622553935,-48.73,14.334,-10.368
130,1436622553936,-48.73,14.334,-10.368
131,1436622553937,-48.73,14.334,-10.368
132,1436622553938,-48.73,14.334,-10.368
133,1436622553939,-48.73,14.334,-10.368
134,1436622553940,-48.73,14.636,-10.368
135,1436622553941,-48.73,14.636,-10.368
136,1436622553942,-48.73,14.636,-10.368
137,1436622553943,-48.73,14.636,-10.368
138,1436622553944,-48.73,14.636,-10.368
139,1436622553945,-48.73,14.636,-10.368
140,1436622553946,-48.73,14.636,-10.368
141,1436622553947,-48.73,14.636,-10.368
142,1436622553948,-48.73,14.636,-10.368
143,1436622553949,-48.73,14.636,-10.368
144,1436622553950,-48.73,14.636,-10.368
145,1436622553951,-48.73,14.636,-10.368
146,1436622553952,-48.73,14.636,-10.368
147,1436622553953,-48.73,14.636,-10.368
148,1436622553963,-48.73,14.636,-10.368
149,1436622553983,-48.73,14.636,-10.368
150,1436622554003,-48.73,14.636,-10.368
151,1436622554023,-48.73,14.636,-10.368
152,1436622554043,-48.73,14.636,-10.368
153,1436622554063,-48.73,14.636,-10.368
154,1436622554084,-48.73,14.636,-10.368
155,1436622554104,-48.73,14.636,-10.368
156,1436622554124,-48.73,14.636,-10.368
157,1436622554145,-48.73,14.636,-10.368
158,1436622554164,-48.73,14.636,-10.368
159,1436622554184,-48.73,14.636,-10.368
160,1436622554205,-48.73,14.636,-10.368
161,1436622554226,-48.73,14.636,-10.368
162,1436622554245,-48.73,14.636,-10.368
163,1436622554267,-48.73,14.636,-10.368
164,1436622554286,-48.73,14.636,-10.368
165,1436622554307,-48.73,14.636,-10.368
166,1436622554328,-48.73,14.636,-10.368
167,1436622554348,-48.73,14.636,-10.368
168,1436622554365,-48.73,14.636,-10.368
169,1436622554385,-48.73,14.636,-10.368
170,1436622554407,-48.73,14.636,-10.054
171,1436622554428,-48.426,14.636,-10.054
172,1436622554491,-48.426,14.636,-10.054
173,1436622554502,-48.426,14.636,-10.054
174,1436622554503,-48.426,14.636,-10.054
175,1436622554508,-48.426,14.636,-10.054
176,1436622554525,-48.426,14.636,-10.054
177,1436622554547,-48.426,14.636,-10.054
178,1436622554566,-48.426,14.636,-10.054
179,1436622554585,-48.426,14.636,-10.054
180,1436622554606,-48.426,14.636,-10.054
181,1436622554627,-48.426,14.636,-10.054
182,1436622554646,-48.426,14.636,-10.054
183,1436622554665,-48.426,14.636,-10.054
184,1436622554687,-48.426,14.636,-10.054
185,1436622554708,-48.426,14.636,-10.054
186,1436622554726,-48.426,14.636,-10.054
187,1436622554747,-48.426,14.636,-10.054
188,1436622554771,-48.426,14.636,-10.054
189,1436622554800,-48.426,14.636,-10.054
190,1436622554830,-48.426,14.636,-10.054
191,1436622554831,-48.426,14.636,-10.054
192,1436622554845,-48.426,14.636,-10.054
193,1436622554867,-48.426,14.636,-10.054
194,1436622554886,-48.426,14.636,-10.054
195,1436622554912,-48.426,14.636,-10.054
196,1436622554928,-48.426,14.636,-10.054
197,1436622554948,-48.426,14.636,-10.054
198,1436622554968,-48.426,14.636,-10.054
199,1436622554987,-48.426,14.636,-10.054
200,1436622555008,-48.426,14.636,-10.054
201,1436622555025,-48.426,14.636,-10.054
202,1436622555047,-48.426,14.636,-10.054
203,1436622555066,-48.426,14.636,-10.054
204,1436622555088,-48.426,14.636,-10.054
205,1436622555107,-48.426,14.636,-10.054
206,1436622555127,-48.426,14.636,-10.054
207,1436622555147,-48.426,14.636,-10.054
208,1436622555170,-48.426,14.636,-10.054
209,1436622555230,-48.426,14.636,-10.054
210,1436622555231,-48.426,14.636,-10.054
211,1436622555232,-48.426,14.636,-10.054
212,1436622555256,-48.426,14.636,-10.054
213,1436622555265,-48.426,14.636,-10.054
214,1436622555298,-48.426,14.636,-10.054
215,1436622555314,-48.426,14.636,-10.368
216,1436622555327,-48.426,14.636,-10.368
217,1436622555346,-48.426,14.636,-10.368
218,1436622555367,-48.426,14.636,-10.368
219,1436622555386,-48.426,14.636,-10.368
220,1436622555408,-48.426,14.636,-10.368
221,1436622555426,-48.426,14.636,-10.368
222,1436622555448,-48.426,14.636,-10.368
223,1436622555469,-48.426,14.636,-10.368
224,1436622555488,-48.426,14.636,-10.368
225,1436622555506,-48.426,14.636,-10.368
226,1436622555529,-48.426,14.636,-10.368
227,1436622555548,-48.426,14.636,-10.368
228,1436622555569,-48.426,14.636,-10.368
229,1436622555589,-48.426,14.636,-10.368
230,1436622555608,-48.426,14.636,-10.368
231,1436622555629,-48.426,14.636,-10.368
232,1436622555650,-48.426,14.636,-10.368
233,1436622555667,-48.426,14.636,-10.368
234,1436622555690,-48.426,14.636,-10.368
235,1436622555710,-48.426,14.636,-10.368
236,1436622555730,-48.426,14.636,-10.368
237,1436622555750,-48.426,14.636,-10.368
238,1436622555768,-48.426,14.636,-10.368
239,1436622555789,-48.426,14.636,-10.368
240,1436622555807,-48.426,14.636,-10.368
241,1436622555828,-48.426,14.636,-10.368
242,1436622555851,-48.426,14.636,-10.368
243,1436622555871,-48.426,14.636,-10.368
244,1436622555891,-48.426,14.636,-10.368
245,1436622555908,-48.426,14.636,-10.368
246,1436622555928,-48.426,14.636,-10.368
247,1436622555995,-48.426,14.636,-10.368
248,1436622556008,-48.426,14.636,-10.368
249,1436622556009,-48.426,14.636,-10.368
250,1436622556010,-48.426,14.636,-10.368
251,1436622556028,-48.426,14.636,-10.368
252,1436622556050,-48.426,14.636,-10.368
253,1436622556066,-48.426,14.636,-10.368
254,1436622556086,-48.426,14.636,-10.368
255,1436622556108,-48.426,14.636,-10.368
256,1436622556129,-48.426,14.636,-10.368
257,1436622556148,-48.426,14.636,-10.368
258,1436622556166,-48.426,14.636,-10.067
259,1436622556192,-48.426,14.636,-10.067
260,1436622556210,-48.426,14.636,-10.067
261,1436622556230,-48.426,14.636,-10.067
262,1436622556250,-48.426,14.636,-10.067
263,1436622556270,-48.426,14.636,-10.067
264,1436622556291,-48.426,14.636,-10.067
265,1436622556306,-48.426,14.636,-10.067
266,1436622556330,-48.426,14.636,-10.067
267,1436622556350,-48.426,14.636,-9.727
268,1436622556385,-48.426,14.636,-9.727
269,1436622556388,-48.426,14.636,-9.727
270,1436622556425,-48.426,14.636,-9.727
271,1436622556437,-48.426,14.636,-9.727
272,1436622556447,-48.426,14.636,-9.727
273,1436622556467,-48.426,14.636,-9.727
274,1436622556487,-48.426,14.636,-9.727
275,1436622556507,-48.426,14.636,-9.727
276,1436622556527,-48.426,14.636,-9.364
277,1436622556547,-48.426,14.636,-9.364
278,1436622556567,-48.426,14.636,-9.364
279,1436622556587,-48.426,14.636,-9.364
280,1436622556607,-48.426,14.636,-9.364
281,1436622556627,-48.426,14.636,-9.364
282,1436622556647,-48.426,14.636,-9.364
283,1436622556667,-48.426,14.636,-9.364
284,1436622556698,-48.426,14.636,-9.364
285,1436622556716,-48.426,14.636,-9.364
286,1436622556727,-48.426,14.636,-9.051
287,1436622556747,-48.426,14.636,-9.051
288,1436622556768,-48.738,14.636,-9.051
289,1436622556788,-48.738,14.636,-9.051
290,1436622556808,-48.738,14.636,-9.051
291,1436622556828,-48.738,14.636,-9.051
292,1436622556851,-48.738,14.636,-9.051
293,1436622556867,-48.738,14.636,-9.051
294,1436622556887,-48.738,14.636,-9.051
295,1436622556907,-48.738,14.636,-9.051
296,1436622556927,-48.738,14.636,-9.051
297,1436622556947,-48.738,14.636,-9.051
298,1436622556970,-48.738,14.326,-9.051
299,1436622556989,-48.738,14.326,-9.051
300,1436622557008,-48.738,14.326,-9.051
301,1436622557027,-48.738,14.326,-9.051
302,1436622557046,-48.738,14.326,-9.051
303,1436622557071,-48.738,14.326,-9.051
304,1436622557091,-48.738,14.326,-9.051
305,1436622557111,-48.738,14.326,-9.051
306,1436622557128,-48.738,14.326,-9.051
307,1436622557148,-48.738,14.326,-9.051
308,1436622557169,-48.738,14.326,-9.051
309,1436622557190,-48.738,14.326,-9.051
310,1436622557211,-48.738,14.326,-9.051
311,1436622557231,-48.738,14.326,-9.051
312,1436622557251,-48.738,14.326,-9.051
313,1436622557268,-48.738,14.326,-9.051
314,1436622557289,-48.738,14.326,-9.051
315,1436622557311,-48.738,14.326,-9.051
316,1436622557329,-48.738,14.326,-9.051
317,1436622557350,-48.738,14.326,-9.051
318,1436622557370,-48.738,14.326,-9.051
319,1436622557389,-48.738,14.326,-9.051
320,1436622557407,-48.738,14.326,-9.051
321,1436622557427,-48.738,14.326,-9.051
322,1436622557452,-48.738,14.326,-9.051
323,1436622557467,-48.738,14.326,-9.051
324,1436622557487,-48.738,14.326,-9.051
325,1436622557508,-48.738,14.326,-9.375
326,1436622557528,-48.738,14.326,-9.375
327,1436622557551,-48.738,14.326,-9.375
328,1436622557578,-48.738,14.326,-9.375
329,1436622557589,-48.738,14.326,-9.375
330,1436622557609,-48.738,14.326,-9.375
331,1436622557629,-48.738,14.326,-9.375
332,1436622557650,-48.738,14.326,-9.375
333,1436622557669,-48.738,14.326,-9.375
334,1436622557690,-48.738,14.326,-9.375
335,1436622557712,-48.738,14.326,-9.684
336,1436622557728,-48.738,14.326,-9.684
337,1436622557751,-48.738,14.326,-9.684
338,1436622557771,-48.738,14.326,-9.684
339,1436622557790,-48.738,14.326,-9.684
340,1436622557811,-48.738,14.326,-9.684
341,1436622557831,-48.738,14.326,-9.684
342,1436622559284,-48.738,14.326,-9.684
343,1436622559285,-48.738,14.326,-9.684
344,1436622559286,-48.738,14.326,-9.684
345,1436622559287,-48.738,14.326,-9.684
346,1436622559288,-48.738,14.326,-9.684
347,1436622559289,-48.738,14.326,-9.684
348,1436622559290,-48.738,14.326,-9.684
349,1436622559291,-48.738,14.326,-9.684
350,1436622559292,-48.738,14.326,-9.684
351,1436622559293,-48.738,14.326,-9.684
352,1436622559294,-48.738,14.326,-9.684
353,1436622559295,-48.738,14.326,-9.684
354,1436622559296,-48.738,14.326,-9.684
355,1436622559297,-48.738,14.326,-9.684
356,1436622559298,-48.738,14.326,-9.684
357,1436622559299,-48.738,14.326,-9.684
358,1436622559300,-48.738,14.326,-9.684
359,1436622559301,-48.738,14.326,-9.684
360,1436622559302,-48.738,14.326,-9.684
361,1436622559303,-48.738,14.326,-9.684
362,1436622559304,-48.738,14.326,-9.684
363,1436622559305,-48.738,14.326,-9.684
364,1436622559306,-48.738,14.326,-9.684
365,1436622559307,-48.738,14.326,-9.684
366,1436622559308,-48.738,14.326,-9.684
367,1436622559309,-48.738,14.326,-9.684
368,1436622559310,-48.738,14.326,-9.684
369,1436622559311,-48.738,14.326,-9.684
370,1436622559312,-48.738,14.326,-9.684
371,1436622559313,-48.738,14.326,-9.684
372,1436622559314,-48.738,14.326,-9.684
373,1436622559315,-48.738,14.326,-9.684
374,1436622559316,-48.738,14.326,-9.684
375,1436622559317,-48.738,14.326,-9.684
376,1436622559318,-48.738,14.326,-9.684
377,1436622559319,-48.738,14.326,-9.684
378,1436622559320,-48.738,14.326,-9.684
379,1436622559321,-48.738,14.326,-9.684
380,1436622559322,-48.738,14.326,-9.684
381,1436622559323,-48.738,14.326,-9.684
382,1436622559324,-48.738,14.326,-9.684
383,1436622559325,-48.738,14.326,-9.684
384,1436622559326,-48.738,14.326,-9.684
385,1436622559327,-48.738,14.326,-9.684
386,1436622559328,-48.738,14.326,-9.684
387,1436622559329,-48.738,14.326,-9.684
388,1436622559330,-48.738,14.326,-9.684
389,1436622559331,-48.738,14.326,-9.684
390,1436622559332,-48.738,14.326,-9.684
391,1436622559333,-48.738,14.326,-9.684
392,1436622559334,-48.738,14.326,-9.684
393,1436622559335,-48.738,14.326,-9.684
394,1436622559336,-48.738,14.326,-9.684
395,1436622559337,-48.738,14.326,-9.684
396,1436622559338,-48.738,14.326,-9.684
397,1436622559339,-48.738,14.326,-9.684
398,1436622559340,-48.738,14.326,-9.684
399,1436622559341,-48.738,14.326,-9.684
400,1436622559342,-48.738,14.326,-9.684
401,1436622559343,-48.738,14.326,-9.684
402,1436622559344,-48.738,14.326,-9.684
403,1436622559345,-48.738,14.326,-9.349
404,1436622559346,-48.738,14.326,-9.349
405,1436622559347,-48.738,14.326,-9.349
406,1436622559348,-48.738,14.326,-9.349
407,1436622559349,-48.738,14.326,-9.349
408,1436622559350,-48.738,14.326,-9.349
409,1436622559351,-48.738,14.326,-9.349
410,1436622559352,-48.738,14.326,-9.045
411,1436622559353,-48.738,14.326,-9.045
412,1436622559354,-48.738,14.326,-9.045
413,1436622559355,-48.738,14.326,-9.045
414,1436622559356,-48.738,14.326,-9.045
415,1436622559357,-48.738,14.326,-9.045
416,1436622559358,-48.738,14.326,-9.045
417,1436622559359,-48.738,14.326,-9.045
418,1436622559368,-48.738,14.326,-9.045
419,1436622559388,-48.738,14.326,-9.045
420,1436622559408,-48.738,14.326,-9.045
421,1436622559428,-48.738,14.326,-8.729
422,1436622559448,-48.738,14.326,-8.729
423,1436622559468,-48.738,14.326,-8.729
424,1436622559488,-48.738,14.326,-8.729
425,1436622559508,-48.738,14.326,-8.729
426,1436622559528,-48.738,14.326,-8.729
427,1436622559551,-48.738,14.326,-8.729
428,1436622559570,-48.738,14.326,-8.729
429,1436622559592,-48.738,14.326,-8.729
430,1436622559609,-48.738,14.326,-8.729
431,1436622559632,-48.738,14.326,-8.729
432,1436622559651,-48.738,14.326,-8.729
433,1436622559672,-48.738,14.326,-8.729
434,1436622559691,-48.738,14.326,-8.729
435,1436622559712,-48.738,14.326,-8.404
436,1436622559730,-48.738,14.326,-8.404
437,1436622559751,-48.738,14.326,-8.404
438,1436622559774,-48.738,14.326,-8.404
439,1436622559869,-48.738,14.326,-8.05
440,1436622559870,-48.738,14.326,-8.05
441,1436622559871,-48.738,14.326,-8.05
442,1436622559872,-49.07,14.326,-7.565
443,1436622559873,-49.07,14.326,-6.665
444,1436622559892,-49.07,14.326,-5.714
445,1436622559909,-49.07,14.326,-5.015
446,1436622559929,-49.07,14.326,-4.293
447,1436622559949,-49.443,14.326,-3.218
448,1436622559969,-49.443,14.326,-2.45
449,1436622559989,-49.443,14.326,-1.446
450,1436622560009,-49.443,13.999,-0.784
451,1436622560029,-49.755,13.999,0.254
452,1436622560049,-49.755,13.999,0.254
453,1436622560069,-49.755,13.999,1.235
454,1436622560089,-49.755,13.999,1.235
455,1436622560109,-49.755,13.685,2.984
456,1436622560129,-50.062,13.685,2.984
457,1436622560149,-50.062,13.685,4.542
458,1436622560169,-50.062,13.685,5.207
459,1436622560189,-50.062,13.685,5.207
460,1436622560210,-50.062,13.685,6.451
461,1436622560230,-50.062,13.323,7.254
462,1436622560251,-50.062,13.323,8.654
463,1436622560274,-50.062,13.323,9.367
464,1436622560291,-50.062,13.323,10.197
465,1436622560314,-50.062,13.323,11.027
466,1436622560334,-50.062,13.323,11.816
467,1436622560353,-50.062,12.954,12.538
468,1436622560372,-49.667,12.954,13.54
469,1436622560393,-49.667,12.954,13.54
470,1436622560411,-49.667,12.954,14.669
471,1436622560439,-49.291,12.954,15.396
472,1436622560499,-49.291,12.586,16.668
473,1436622560511,-49.291,12.586,16.218
474,1436622560512,-48.857,12.586,17.564
475,1436622560513,-48.857,12.586,17.564
476,1436622560533,-48.532,12.226,18.661
477,1436622560555,-48.532,12.226,18.661
478,1436622560571,-48.187,12.226,18.98
479,1436622560593,-48.187,11.866,18.98
480,1436622560621,-47.822,11.866,19.529
481,1436622560637,-47.822,11.866,20.063
482,1436622560655,-47.476,11.5,20.063
483,1436622560673,-47.476,11.5,20.78
484,1436622560694,-47.14,11.5,20.78
485,1436622560712,-47.14,11.137,21.131
486,1436622560731,-46.812,11.137,21.131
487,1436622560854,-46.812,11.137,20.613
488,1436622560855,-46.812,10.818,21.452
489,1436622560856,-46.377,10.818,21.452
490,1436622560857,-46.377,10.818,21.452
491,1436622560858,-46.377,10.818,21.452
492,1436622560859,-46.023,10.818,21.151
493,1436622560898,-46.023,10.469,21.151
494,1436622560899,-46.023,10.469,21.151
495,1436622560919,-46.023,10.469,21.151
496,1436622560930,-45.707,10.469,21.151
497,1436622560951,-45.707,10.469,21.151
498,1436622560971,-45.707,10.469,21.499
499,1436622560992,-45.707,10.469,21.499
500,1436622561015,-45.707,10.469,21.499
501,1436622561035,-45.707,10.469,21.499
502,1436622561054,-45.707,10.469,21.499
503,1436622561071,-45.707,10.469,21.499
