id,attr_time,attr_light
1,1436609875222,92.0
2,1436609875241,92.0
3,1436609875261,92.0
4,1436609875281,92.0
5,1436609875301,92.0
6,1436609875320,92.0
7,1436609875342,92.0
8,1436609875361,92.0
9,1436609875379,92.0
10,1436609875401,92.0
11,1436609875420,92.0
12,1436609875439,92.0
13,1436609875459,92.0
14,1436609875480,92.0
15,1436609875503,93.0
16,1436609875518,93.0
17,1436609875543,93.0
18,1436609875562,93.0
19,1436609875579,93.0
20,1436609875598,93.0
21,1436609875620,93.0
22,1436609875639,93.0
23,1436609875662,93.0
24,1436609875731,93.0
25,1436609875732,93.0
26,1436609875733,93.0
27,1436609875740,93.0
28,1436609875759,93.0
29,1436609875781,93.0
30,1436609875799,93.0
31,1436609875825,93.0
32,1436609875841,93.0
33,1436609875860,93.0
34,1436609875880,93.0
35,1436609875900,93.0
36,1436609875919,93.0
37,1436609875942,93.0
38,1436609875962,93.0
39,1436609875982,93.0
40,1436609876002,93.0
41,1436609876022,93.0
42,1436609876042,93.0
43,1436609876062,93.0
44,1436609876080,93.0
45,1436609876099,93.0
46,1436609876119,93.0
47,1436609876139,93.0
48,1436609876161,93.0
49,1436609876182,93.0
50,1436609876202,93.0
51,1436609876222,93.0
52,1436609876241,93.0
53,1436609876261,93.0
54,1436609876281,93.0
55,1436609876302,93.0
56,1436609876323,93.0
57,1436609876344,93.0
58,1436609876361,93.0
59,1436609876387,93.0
60,1436609876448,93.0
61,1436609876449,93.0
62,1436609876450,93.0
63,1436609876462,93.0
64,1436609876479,93.0
65,1436609876499,93.0
66,1436609876520,93.0
67,1436609876539,93.0
68,1436609876564,93.0
69,1436609876580,93.0
70,1436609876600,93.0
71,1436609876621,93.0
72,1436609876640,93.0
73,1436609876662,93.0
74,1436609876683,93.0
75,1436609876703,93.0
76,1436609876723,93.0
77,1436609876743,93.0
78,1436609876761,93.0
79,1436609876782,93.0
80,1436609876802,93.0
81,1436609876822,93.0
82,1436609876843,93.0
83,1436609876864,93.0
84,1436609876882,93.0
85,1436609876903,93.0
86,1436609876922,93.0
87,1436609876943,93.0
88,1436609876960,93.0
89,1436609876981,93.0
90,1436609877001,93.0
91,1436609877021,93.0
92,1436609877043,93.0
93,1436609877061,93.0
94,1436609877081,93.0
95,1436609877101,93.0
96,1436609877127,93.0
97,1436609877140,92.0
98,1436609877213,92.0
99,1436609877214,92.0
100,1436609877215,92.0
101,1436609877221,92.0
102,1436609877240,92.0
103,1436609877260,92.0
104,1436609877280,92.0
105,1436609877300,92.0
106,1436609877321,92.0
107,1436609877340,92.0
108,1436609877362,92.0
109,1436609877382,92.0
110,1436609877402,92.0
111,1436609877423,92.0
112,1436609877443,92.0
113,1436609877463,92.0
114,1436609877482,92.0
115,1436609877504,92.0
116,1436609877524,92.0
117,1436609877544,92.0
118,1436609877564,92.0
119,1436609877582,91.0
120,1436609877602,91.0
121,1436609877624,91.0
122,1436609877644,91.0
123,1436609877662,91.0
124,1436609877682,91.0
125,1436609877704,91.0
126,1436609877720,91.0
127,1436609877741,91.0
128,1436609877761,91.0
129,1436609877782,91.0
130,1436609877801,92.0
131,1436609877822,92.0
132,1436609877843,92.0
133,1436609877866,92.0
134,1436609877928,92.0
135,1436609877941,92.0
136,1436609877942,92.0
137,1436609877943,92.0
138,1436609877962,93.0
139,1436609877995,93.0
140,1436609878003,94.0
141,1436609878021,94.0
142,1436609878052,95.0
143,1436609878061,95.0
144,1436609878081,96.0
145,1436609878104,99.0
146,1436609878121,99.0
147,1436609878142,102.0
148,1436609878161,102.0
149,1436609878181,106.0
150,1436609878202,106.0
151,1436609878225,111.0
152,1436609878241,111.0
153,1436609878261,114.0
154,1436609878282,114.0
155,1436609878311,117.0
156,1436609878347,117.0
157,1436609878348,120.0
158,1436609878361,123.0
159,1436609878382,123.0
160,1436609878401,126.0
161,1436609878421,126.0
162,1436609878441,129.0
163,1436609878461,129.0
164,1436609878481,132.0
165,1436609878501,132.0
166,1436609878521,135.0
167,1436609878541,135.0
168,1436609878561,138.0
169,1436609878581,138.0
170,1436609878604,140.0
171,1436609878659,140.0
172,1436609878662,142.0
173,1436609878663,146.0
174,1436609878681,146.0
175,1436609878701,148.0
176,1436609878721,148.0
177,1436609878741,150.0
178,1436609878763,150.0
179,1436609878781,150.0
180,1436609878801,150.0
181,1436609878821,151.0
182,1436609878842,151.0
183,1436609878860,156.0
184,1436609878882,156.0
185,1436609878902,168.0
186,1436609878922,181.0
187,1436609878941,181.0
188,1436609878963,175.0
189,1436609878983,175.0
190,1436609879001,161.0
191,1436609879022,161.0
192,1436609879044,221.0
193,1436609879061,221.0
194,1436609879083,298.0
195,1436609879103,298.0
196,1436609879123,258.0
197,1436609879142,258.0
198,1436609879162,186.0
199,1436609879183,186.0
200,1436609879202,173.0
201,1436609879223,184.0
202,1436609879268,184.0
203,1436609879269,183.0
204,1436609879282,183.0
205,1436609879310,207.0
206,1436609879385,207.0
207,1436609879386,196.0
208,1436609879387,196.0
209,1436609879388,189.0
210,1436609879404,189.0
211,1436609879426,192.0
212,1436609879442,192.0
213,1436609879462,195.0
214,1436609879495,197.0
215,1436609879502,197.0
216,1436609879523,199.0
217,1436609879543,199.0
218,1436609879562,201.0
219,1436609879583,201.0
220,1436609879605,203.0
221,1436609879623,203.0
222,1436609879643,204.0
223,1436609879665,204.0
224,1436609879682,202.0
225,1436609879702,202.0
226,1436609879730,201.0
227,1436609879742,201.0
228,1436609879763,200.0
229,1436609879782,200.0
230,1436609879802,200.0
231,1436609879822,200.0
232,1436609879842,200.0
233,1436609879865,200.0
234,1436609879882,200.0
235,1436609879904,201.0
236,1436609879923,201.0
237,1436609879949,203.0
238,1436609879965,203.0
239,1436609879985,205.0
240,1436609880004,205.0
241,1436609880135,207.0
242,1436609880136,209.0
243,1436609880137,209.0
244,1436609880138,208.0
245,1436609880139,208.0
246,1436609880140,207.0
247,1436609880147,207.0
248,1436609880168,205.0
249,1436609880190,205.0
250,1436609880203,203.0
251,1436609880232,203.0
252,1436609880243,201.0
253,1436609880265,201.0
254,1436609880289,199.0
255,1436609880303,199.0
256,1436609880323,198.0
257,1436609880345,198.0
258,1436609880365,198.0
259,1436609880385,197.0
260,1436609880405,197.0
261,1436609880424,197.0
262,1436609880445,197.0
263,1436609880466,197.0
264,1436609880484,197.0
265,1436609880505,196.0
266,1436609880529,196.0
267,1436609880545,196.0
268,1436609880564,196.0
269,1436609880586,197.0
270,1436609880606,197.0
271,1436609880626,197.0
272,1436609880645,198.0
273,1436609880666,198.0
274,1436609880686,267.0
275,1436609880706,267.0
276,1436609880726,868.0
277,1436609880746,868.0
278,1436609880764,307.0
279,1436609880793,307.0
280,1436609880873,205.0
281,1436609880874,205.0
282,1436609880875,209.0
283,1436609880876,209.0
284,1436609880886,213.0
285,1436609880907,216.0
286,1436609880923,216.0
287,1436609880943,217.0
288,1436609880966,217.0
289,1436609880985,218.0
290,1436609881008,218.0
291,1436609881139,218.0
292,1436609881140,218.0
293,1436609881147,216.0
294,1436609881148,216.0
295,1436609881149,216.0
296,1436609881150,216.0
297,1436609881151,218.0
298,1436609881176,252.0
299,1436609881206,252.0
300,1436609881207,269.0
301,1436609881224,269.0
302,1436609881244,227.0
303,1436609881264,227.0
304,1436609881283,229.0
305,1436609881308,229.0
306,1436609881325,231.0
307,1436609881344,231.0
308,1436609881364,253.0
309,1436609881387,253.0
310,1436609881405,244.0
311,1436609881424,244.0
312,1436609881447,265.0
313,1436609881464,244.0
314,1436609881484,244.0
315,1436609881503,249.0
316,1436609881528,249.0
317,1436609881548,254.0
318,1436609881565,254.0
319,1436609881583,257.0
320,1436609881603,257.0
321,1436609881628,257.0
322,1436609881644,257.0
323,1436609881665,253.0
324,1436609881688,253.0
325,1436609881708,249.0
326,1436609881728,346.0
327,1436609881749,346.0
328,1436609881768,450.0
329,1436609881788,450.0
330,1436609881806,423.0
331,1436609881828,423.0
332,1436609881848,258.0
333,1436609881868,258.0
334,1436609881885,198.0
335,1436609881906,198.0
336,1436609881927,191.0
337,1436609881947,191.0
338,1436609881968,188.0
339,1436609881987,188.0
340,1436609882006,187.0
341,1436609882028,186.0
342,1436609882048,186.0
343,1436609882068,186.0
344,1436609882087,186.0
345,1436609882106,186.0
346,1436609882126,186.0
347,1436609882147,186.0
348,1436609882165,186.0
349,1436609882211,207.0
350,1436609882212,207.0
351,1436609882225,230.0
352,1436609882251,230.0
353,1436609882268,196.0
354,1436609882288,222.0
355,1436609882304,222.0
356,1436609882325,219.0
357,1436609882347,219.0
358,1436609882365,187.0
359,1436609882388,187.0
360,1436609882410,170.0
361,1436609882427,170.0
362,1436609882448,167.0
363,1436609882469,167.0
364,1436609882491,165.0
365,1436609882508,165.0
366,1436609882528,163.0
367,1436609882548,163.0
368,1436609882568,161.0
369,1436609882586,159.0
370,1436609882606,159.0
371,1436609882628,156.0
372,1436609882647,156.0
373,1436609882665,153.0
374,1436609882686,153.0
375,1436609882711,202.0
376,1436609882726,202.0
377,1436609882750,157.0
378,1436609882769,157.0
379,1436609882785,183.0
380,1436609882807,183.0
381,1436609882829,168.0
382,1436609882846,275.0
383,1436609882865,275.0
384,1436609882941,341.0
385,1436609882942,341.0
386,1436609882943,137.0
387,1436609882949,137.0
388,1436609882968,135.0
389,1436609882988,135.0
390,1436609883005,135.0
391,1436609883027,135.0
392,1436609883046,135.0
393,1436609883070,135.0
394,1436609883086,135.0
395,1436609883109,136.0
396,1436609883126,136.0
397,1436609883149,137.0
398,1436609883169,137.0
399,1436609883189,139.0
400,1436609883209,139.0
401,1436609883229,141.0
402,1436609883249,141.0
403,1436609883269,145.0
404,1436609883289,145.0
405,1436609883308,149.0
406,1436609883328,149.0
407,1436609883348,154.0
408,1436609883366,154.0
409,1436609883386,158.0
410,1436609883406,162.0
411,1436609883429,162.0
412,1436609883446,164.0
413,1436609883469,164.0
414,1436609883489,164.0
415,1436609883507,164.0
416,1436609883526,164.0
417,1436609883547,164.0
418,1436609883569,162.0
419,1436609883587,162.0
420,1436609883674,161.0
421,1436609883675,161.0
422,1436609883698,161.0
423,1436609883699,161.0
424,1436609883700,161.0
425,1436609883715,160.0
426,1436609883728,160.0
427,1436609883759,164.0
428,1436609883767,164.0
429,1436609883786,158.0
430,1436609883819,158.0
431,1436609883840,153.0
432,1436609883847,153.0
433,1436609883874,163.0
434,1436609883886,163.0
435,1436609883907,154.0
436,1436609883927,154.0
437,1436609883947,209.0
438,1436609883966,163.0
439,1436609883987,163.0
440,1436609884007,174.0
441,1436609884026,174.0
442,1436609884047,180.0
443,1436609884067,180.0
444,1436609884088,169.0
445,1436609884114,169.0
446,1436609884130,170.0
447,1436609884150,170.0
448,1436609884170,197.0
449,1436609884187,197.0
450,1436609884210,272.0
451,1436609884229,368.0
452,1436609884249,368.0
453,1436609884269,495.0
454,1436609884290,495.0
455,1436609884310,233.0
456,1436609884342,233.0
457,1436609884352,163.0
458,1436609884369,163.0
459,1436609884423,157.0
460,1436609884424,157.0
461,1436609884450,152.0
462,1436609884451,152.0
463,1436609884473,147.0
464,1436609884487,147.0
465,1436609884507,142.0
466,1436609884529,139.0
467,1436609884558,139.0
468,1436609884578,137.0
469,1436609884587,137.0
470,1436609884608,139.0
471,1436609884631,139.0
472,1436609884651,238.0
473,1436609884670,238.0
474,1436609884688,197.0
475,1436609884711,197.0
476,1436609884730,137.0
477,1436609884751,137.0
478,1436609884771,146.0
479,1436609884790,138.0
480,1436609884811,138.0
481,1436609884828,148.0
482,1436609884848,148.0
483,1436609884871,237.0
484,1436609884888,237.0
485,1436609884907,121.0
486,1436609884928,121.0
487,1436609884951,121.0
488,1436609884971,121.0
489,1436609884988,117.0
490,1436609885011,117.0
491,1436609885029,115.0
492,1436609885050,115.0
493,1436609885069,114.0
494,1436609885090,112.0
495,1436609885108,112.0
496,1436609885165,111.0
497,1436609885177,111.0
498,1436609885178,110.0
499,1436609885193,110.0
500,1436609885209,110.0
501,1436609885231,110.0
502,1436609885248,109.0
503,1436609885273,109.0
504,1436609885289,107.0
505,1436609885309,107.0
506,1436609885328,106.0
507,1436609885349,104.0
508,1436609885372,104.0
509,1436609885392,103.0
510,1436609885410,103.0
511,1436609885432,103.0
512,1436609885451,103.0
513,1436609885471,103.0
514,1436609885491,103.0
515,1436609885508,104.0
516,1436609885531,104.0
517,1436609885551,105.0
518,1436609885569,105.0
519,1436609885591,107.0
520,1436609885610,107.0
521,1436609885630,108.0
522,1436609885651,110.0
523,1436609885671,110.0
524,1436609885691,113.0
525,1436609885712,113.0
526,1436609885732,114.0
527,1436609885752,114.0
528,1436609885772,115.0
529,1436609885790,115.0
530,1436609885810,116.0
531,1436609885828,116.0
532,1436609885848,117.0
533,1436609885899,117.0
534,1436609885900,117.0
535,1436609885920,118.0
536,1436609885928,118.0
537,1436609885952,119.0
538,1436609885969,119.0
539,1436609885989,120.0
540,1436609886009,120.0
541,1436609886031,121.0
542,1436609886050,121.0
543,1436609886069,120.0
544,1436609886091,120.0
545,1436609886112,120.0
546,1436609886131,120.0
547,1436609886149,120.0
548,1436609886169,120.0
549,1436609886189,120.0
550,1436609886209,120.0
551,1436609886231,120.0
552,1436609886250,120.0
553,1436609886272,120.0
554,1436609886292,120.0
555,1436609886310,120.0
556,1436609886330,120.0
557,1436609886349,120.0
558,1436609886368,122.0
559,1436609886389,122.0
560,1436609886414,124.0
561,1436609886429,124.0
562,1436609886455,126.0
563,1436609886472,127.0
564,1436609886489,127.0
565,1436609886509,132.0
566,1436609886530,132.0
567,1436609886551,132.0
568,1436609886570,132.0
569,1436609886624,134.0
570,1436609886625,134.0
571,1436609886635,136.0
572,1436609886650,136.0
573,1436609886669,139.0
574,1436609886689,139.0
575,1436609886709,141.0
576,1436609886729,141.0
577,1436609886752,145.0
578,1436609886770,150.0
579,1436609886790,150.0
580,1436609886810,156.0
581,1436609886831,156.0
582,1436609886850,160.0
583,1436609886870,160.0
584,1436609886893,162.0
585,1436609886913,162.0
586,1436609886933,164.0
587,1436609886952,164.0
588,1436609886973,166.0
589,1436609886993,166.0
590,1436609887013,166.0
591,1436609887032,166.0
592,1436609887051,166.0
593,1436609887073,168.0
594,1436609887091,168.0
595,1436609887112,171.0
596,1436609887131,171.0
597,1436609887152,173.0
598,1436609887172,173.0
599,1436609887193,173.0
600,1436609887211,173.0
601,1436609887231,172.0
602,1436609887251,172.0
603,1436609887271,171.0
604,1436609887291,171.0
605,1436609887311,167.0
606,1436609887381,164.0
607,1436609887382,164.0
608,1436609887383,163.0
609,1436609887390,163.0
610,1436609887410,163.0
611,1436609887432,163.0
612,1436609887450,162.0
613,1436609887470,162.0
614,1436609887497,162.0
615,1436609887511,162.0
616,1436609887532,162.0
617,1436609887553,162.0
618,1436609887572,163.0
619,1436609887593,163.0
620,1436609887613,163.0
621,1436609887633,164.0
622,1436609887654,164.0
623,1436609887672,165.0
624,1436609887693,165.0
625,1436609887743,168.0
626,1436609887744,168.0
627,1436609887758,168.0
628,1436609887772,168.0
629,1436609887790,168.0
630,1436609887827,168.0
631,1436609887859,170.0
632,1436609887860,170.0
633,1436609887909,173.0
634,1436609887912,175.0
635,1436609887913,175.0
636,1436609888482,183.0
637,1436609888483,183.0
638,1436609888484,211.0
639,1436609888485,211.0
640,1436609888486,228.0
641,1436609888487,228.0
642,1436609888488,209.0
643,1436609888489,209.0
644,1436609888490,206.0
645,1436609888491,206.0
646,1436609888492,211.0
647,1436609888493,219.0
648,1436609888494,219.0
649,1436609888495,205.0
650,1436609888496,205.0
651,1436609888497,208.0
652,1436609888498,208.0
653,1436609888499,218.0
654,1436609888500,218.0
655,1436609888501,206.0
656,1436609888502,206.0
657,1436609888503,203.0
658,1436609888504,203.0
659,1436609888505,193.0
660,1436609888506,193.0
661,1436609888507,179.0
662,1436609888508,166.0
663,1436609888509,166.0
664,1436609888510,158.0
665,1436609888511,158.0
666,1436609888530,154.0
667,1436609888550,154.0
668,1436609888570,154.0
669,1436609888590,154.0
670,1436609888610,155.0
671,1436609888630,155.0
672,1436609888650,177.0
673,1436609888670,177.0
674,1436609888690,232.0
675,1436609888710,186.0
676,1436609888730,186.0
677,1436609888750,189.0
678,1436609888773,189.0
679,1436609888790,174.0
680,1436609888810,174.0
681,1436609888832,175.0
682,1436609888852,175.0
683,1436609888872,173.0
684,1436609888892,173.0
685,1436609888911,169.0
686,1436609888933,169.0
687,1436609889048,165.0
688,1436609889049,162.0
689,1436609889050,162.0
690,1436609889051,538.0
691,1436609889052,538.0
692,1436609889055,5644.0
693,1436609889073,5644.0
694,1436609889091,12474.0
695,1436609889110,12474.0
696,1436609889131,10495.0
697,1436609889151,10495.0
698,1436609889171,11102.0
699,1436609889191,11102.0
700,1436609889211,12946.0
701,1436609889231,12946.0
702,1436609889265,16123.0
703,1436609889271,17342.0
704,1436609889291,17342.0
705,1436609889311,13260.0
706,1436609889331,13260.0
707,1436609889351,0.0
708,1436609889371,9144.0
709,1436609889391,9144.0
710,1436609889411,4523.0
711,1436609889431,4523.0
712,1436609889451,1966.0
713,1436609889471,1966.0
714,1436609889491,1299.0
715,1436609889511,1299.0
716,1436609889531,960.0
717,1436609889551,960.0
718,1436609889571,785.0
719,1436609889591,785.0
720,1436609889611,711.0
721,1436609889631,697.0
722,1436609889651,697.0
723,1436609889674,701.0
724,1436609889691,701.0
725,1436609889711,709.0
726,1436609889731,709.0
727,1436609889751,725.0
728,1436609889773,725.0
729,1436609889794,746.0
730,1436609889813,746.0
731,1436609889831,763.0
732,1436609889855,763.0
733,1436609889872,771.0
734,1436609889893,771.0
735,1436609889912,771.0
736,1436609889932,767.0
737,1436609889952,767.0
738,1436609889973,769.0
739,1436609889993,769.0
740,1436609890021,763.0
741,1436609890032,763.0
742,1436609890054,749.0
743,1436609890073,749.0
744,1436609890093,731.0
745,1436609890112,731.0
746,1436609890138,716.0
747,1436609890152,716.0
748,1436609890172,718.0
749,1436609890193,760.0
750,1436609890212,760.0
751,1436609890232,857.0
752,1436609890271,857.0
753,1436609890273,980.0
754,1436609890294,980.0
755,1436609890313,1009.0
756,1436609890332,1009.0
757,1436609890353,930.0
758,1436609890375,930.0
759,1436609890394,864.0
760,1436609890429,864.0
761,1436609890445,841.0
762,1436609890453,841.0
763,1436609890476,841.0
764,1436609890493,843.0
765,1436609890513,843.0
766,1436609890532,841.0
767,1436609890554,841.0
768,1436609890575,828.0
769,1436609890595,828.0
770,1436609890613,818.0
771,1436609890635,818.0
772,1436609890656,807.0
773,1436609890675,807.0
774,1436609890693,803.0
775,1436609890714,803.0
776,1436609890734,799.0
777,1436609890755,805.0
778,1436609890774,805.0
779,1436609890794,809.0
780,1436609890813,809.0
781,1436609890835,815.0
782,1436609890855,815.0
783,1436609890877,841.0
784,1436609890895,841.0
785,1436609890915,867.0
786,1436609890932,867.0
787,1436609890954,892.0
788,1436609890974,892.0
789,1436609890997,914.0
790,1436609891142,914.0
791,1436609891143,937.0
792,1436609891144,964.0
793,1436609891145,964.0
794,1436609891146,988.0
795,1436609891150,988.0
796,1436609891152,1002.0
797,1436609891154,1002.0
798,1436609891271,1003.0
799,1436609891272,1003.0
800,1436609891273,987.0
801,1436609891274,987.0
802,1436609891275,974.0
803,1436609891315,974.0
804,1436609891316,993.0
805,1436609891317,1051.0
806,1436609891390,1051.0
807,1436609891400,1188.0
808,1436609891401,1188.0
809,1436609891402,1301.0
810,1436609891481,1301.0
811,1436609891482,1239.0
812,1436609891483,1239.0
813,1436609891484,1183.0
814,1436609891503,1183.0
815,1436609891518,1168.0
816,1436609891533,1168.0
817,1436609891553,1163.0
818,1436609891578,1163.0
819,1436609891603,1160.0
820,1436609891613,1160.0
821,1436609891634,1160.0
822,1436609891653,1149.0
823,1436609891673,1149.0
824,1436609891693,1136.0
825,1436609891713,1136.0
826,1436609891733,1115.0
827,1436609891753,1115.0
828,1436609891773,1094.0
829,1436609891793,1094.0
830,1436609891813,1068.0
831,1436609891833,1068.0
832,1436609891853,1046.0
833,1436609891873,1028.0
834,1436609891893,1028.0
835,1436609891913,1006.0
836,1436609891933,1006.0
837,1436609891953,1016.0
838,1436609891973,1016.0
839,1436609891993,1051.0
