id,attr_time,attr_light
1,1436609875229,247.0
2,1436609875249,258.0
3,1436609875269,258.0
4,1436609875289,248.0
5,1436609875308,248.0
6,1436609875327,241.0
7,1436609875349,241.0
8,1436609875369,241.0
9,1436609875386,241.0
10,1436609875406,242.0
11,1436609875428,242.0
12,1436609875451,242.0
13,1436609875471,242.0
14,1436609875491,242.0
15,1436609875509,243.0
16,1436609875534,243.0
17,1436609875546,245.0
18,1436609875566,245.0
19,1436609875586,252.0
20,1436609875606,249.0
21,1436609875628,249.0
22,1436609875649,245.0
23,1436609875666,245.0
24,1436609875686,244.0
25,1436609875706,244.0
26,1436609875728,245.0
27,1436609875746,245.0
28,1436609875774,245.0
29,1436609875798,245.0
30,1436609875806,245.0
31,1436609875901,245.0
32,1436609875902,245.0
33,1436609875903,245.0
34,1436609875904,245.0
35,1436609875922,245.0
36,1436609875931,245.0
37,1436609875946,246.0
38,1436609875966,246.0
39,1436609875986,245.0
40,1436609876006,245.0
41,1436609876026,245.0
42,1436609876046,245.0
43,1436609876066,245.0
44,1436609876090,245.0
45,1436609876106,245.0
46,1436609876147,244.0
47,1436609876148,244.0
48,1436609876166,244.0
49,1436609876189,244.0
50,1436609876206,243.0
51,1436609876227,244.0
52,1436609876248,244.0
53,1436609876271,243.0
54,1436609876292,243.0
55,1436609876311,243.0
56,1436609876327,243.0
57,1436609876372,243.0
58,1436609876373,243.0
59,1436609876385,243.0
60,1436609876405,243.0
61,1436609876425,242.0
62,1436609876447,242.0
63,1436609876468,242.0
64,1436609876491,242.0
65,1436609876507,242.0
66,1436609876530,242.0
67,1436609876550,242.0
68,1436609876570,242.0
69,1436609876586,242.0
70,1436609876611,242.0
71,1436609876631,242.0
72,1436609876650,242.0
73,1436609876671,242.0
74,1436609876691,242.0
75,1436609876706,241.0
76,1436609876727,241.0
77,1436609876750,241.0
78,1436609876770,241.0
79,1436609876790,242.0
80,1436609876810,242.0
81,1436609876833,241.0
82,1436609876849,241.0
83,1436609876870,241.0
84,1436609876889,241.0
85,1436609876911,241.0
86,1436609876932,241.0
87,1436609876955,241.0
88,1436609876967,241.0
89,1436609877009,241.0
90,1436609877010,241.0
91,1436609877032,241.0
92,1436609877047,241.0
93,1436609877067,240.0
94,1436609877088,240.0
95,1436609877109,240.0
96,1436609877127,240.0
97,1436609877151,240.0
98,1436609877167,240.0
99,1436609877190,240.0
100,1436609877210,240.0
101,1436609877229,240.0
102,1436609877248,240.0
103,1436609877270,240.0
104,1436609877290,240.0
105,1436609877310,240.0
106,1436609877330,240.0
107,1436609877350,240.0
108,1436609877370,239.0
109,1436609877390,239.0
110,1436609877410,239.0
111,1436609877431,239.0
112,1436609877451,239.0
113,1436609877471,239.0
114,1436609877489,239.0
115,1436609877508,239.0
116,1436609877528,239.0
117,1436609877549,239.0
118,1436609877571,239.0
119,1436609877591,239.0
120,1436609877611,239.0
121,1436609877628,239.0
122,1436609877650,239.0
123,1436609877669,238.0
124,1436609877689,239.0
125,1436609877709,239.0
126,1436609877774,240.0
127,1436609877775,240.0
128,1436609877776,240.0
129,1436609877788,240.0
130,1436609877811,239.0
131,1436609877831,239.0
132,1436609877849,240.0
133,1436609877871,240.0
134,1436609877888,242.0
135,1436609877908,242.0
136,1436609877930,242.0
137,1436609877949,244.0
138,1436609877969,244.0
139,1436609877991,245.0
140,1436609878011,245.0
141,1436609878031,246.0
142,1436609878052,246.0
143,1436609878071,247.0
144,1436609878091,247.0
145,1436609878111,248.0
146,1436609878132,250.0
147,1436609878152,250.0
148,1436609878206,251.0
149,1436609878208,251.0
150,1436609878209,250.0
151,1436609878231,250.0
152,1436609878251,249.0
153,1436609878271,249.0
154,1436609878292,247.0
155,1436609878309,245.0
156,1436609878329,245.0
157,1436609878349,243.0
158,1436609878374,243.0
159,1436609878391,242.0
160,1436609878415,242.0
161,1436609878431,241.0
162,1436609878449,241.0
163,1436609878519,239.0
164,1436609878520,239.0
165,1436609878521,233.0
166,1436609878528,226.0
167,1436609878565,226.0
168,1436609878568,220.0
169,1436609878589,220.0
170,1436609878622,215.0
171,1436609878639,215.0
172,1436609878649,209.0
173,1436609878669,209.0
174,1436609878689,204.0
175,1436609878709,204.0
176,1436609878729,200.0
177,1436609878750,196.0
178,1436609878769,196.0
179,1436609878789,192.0
180,1436609878809,192.0
181,1436609878829,189.0
182,1436609878849,189.0
183,1436609878870,184.0
184,1436609878889,184.0
185,1436609878911,176.0
186,1436609878929,169.0
187,1436609878950,169.0
188,1436609878969,163.0
189,1436609878989,163.0
190,1436609879009,159.0
191,1436609879029,159.0
192,1436609879050,158.0
193,1436609879069,158.0
194,1436609879089,156.0
195,1436609879111,156.0
196,1436609879132,151.0
197,1436609879156,147.0
198,1436609879204,147.0
199,1436609879205,141.0
200,1436609879208,141.0
201,1436609879230,135.0
202,1436609879249,135.0
203,1436609879269,134.0
204,1436609879290,134.0
205,1436609879309,131.0
206,1436609879329,131.0
207,1436609879353,128.0
208,1436609879373,125.0
209,1436609879393,125.0
210,1436609879411,121.0
211,1436609879433,121.0
212,1436609879453,119.0
213,1436609879473,119.0
214,1436609879493,116.0
215,1436609879512,116.0
216,1436609879533,111.0
217,1436609879550,108.0
218,1436609879573,108.0
219,1436609879593,108.0
220,1436609879611,108.0
221,1436609879633,117.0
222,1436609879653,117.0
223,1436609879672,111.0
224,1436609879693,111.0
225,1436609879713,103.0
226,1436609879733,103.0
227,1436609879753,96.0
228,1436609879771,94.0
229,1436609879791,94.0
230,1436609879810,93.0
231,1436609879921,93.0
232,1436609879922,91.0
233,1436609879923,91.0
234,1436609879924,90.0
235,1436609879925,90.0
236,1436609879938,88.0
237,1436609879950,88.0
238,1436609879971,86.0
239,1436609879990,84.0
240,1436609880012,84.0
241,1436609880030,84.0
242,1436609880051,84.0
243,1436609880071,84.0
244,1436609880092,84.0
245,1436609880112,85.0
246,1436609880133,85.0
247,1436609880153,87.0
248,1436609880173,87.0
249,1436609880192,87.0
250,1436609880213,85.0
251,1436609880233,85.0
252,1436609880253,84.0
253,1436609880273,84.0
254,1436609880293,84.0
255,1436609880311,84.0
256,1436609880333,86.0
257,1436609880353,86.0
258,1436609880373,89.0
259,1436609880393,93.0
260,1436609880413,93.0
261,1436609880433,95.0
262,1436609880453,95.0
263,1436609880473,97.0
264,1436609880494,97.0
265,1436609880512,99.0
266,1436609880532,99.0
267,1436609880552,100.0
268,1436609880572,100.0
269,1436609880592,97.0
270,1436609880663,94.0
271,1436609880664,94.0
272,1436609880665,92.0
273,1436609880670,92.0
274,1436609880692,90.0
275,1436609880711,90.0
276,1436609880731,88.0
277,1436609880756,88.0
278,1436609880771,88.0
279,1436609880791,88.0
280,1436609880812,89.0
281,1436609880832,90.0
282,1436609880854,90.0
283,1436609880871,91.0
284,1436609880892,91.0
285,1436609880911,90.0
286,1436609880935,90.0
287,1436609880959,90.0
288,1436609880980,90.0
289,1436609881003,90.0
290,1436609881011,89.0
291,1436609881036,89.0
292,1436609881051,87.0
293,1436609881073,87.0
294,1436609881094,89.0
295,1436609881114,89.0
296,1436609881134,90.0
297,1436609881153,90.0
298,1436609881174,88.0
299,1436609881193,88.0
300,1436609881213,87.0
301,1436609881236,87.0
302,1436609881255,87.0
303,1436609881274,89.0
304,1436609881294,89.0
305,1436609881322,91.0
306,1436609881383,91.0
307,1436609881384,94.0
308,1436609881385,94.0
309,1436609881392,95.0
310,1436609881412,95.0
311,1436609881433,93.0
312,1436609881453,90.0
313,1436609881472,90.0
314,1436609881492,89.0
315,1436609881513,89.0
316,1436609881533,90.0
317,1436609881555,90.0
318,1436609881576,92.0
319,1436609881593,92.0
320,1436609881614,95.0
321,1436609881635,98.0
322,1436609881655,98.0
323,1436609881675,100.0
324,1436609881695,100.0
325,1436609881713,99.0
326,1436609881733,99.0
327,1436609881753,97.0
328,1436609881773,97.0
329,1436609881795,97.0
330,1436609881813,97.0
331,1436609881832,96.0
332,1436609881854,92.0
333,1436609881872,92.0
334,1436609881894,90.0
335,1436609881914,90.0
336,1436609881933,89.0
337,1436609881955,89.0
338,1436609881973,86.0
339,1436609881993,86.0
340,1436609882019,85.0
341,1436609882086,85.0
342,1436609882087,84.0
343,1436609882088,87.0
344,1436609882096,87.0
345,1436609882112,91.0
346,1436609882133,91.0
347,1436609882154,87.0
348,1436609882173,87.0
349,1436609882193,83.0
350,1436609882213,83.0
351,1436609882233,81.0
352,1436609882255,79.0
353,1436609882273,79.0
354,1436609882295,76.0
355,1436609882315,76.0
356,1436609882335,74.0
357,1436609882355,74.0
358,1436609882375,75.0
359,1436609882395,75.0
360,1436609882413,76.0
361,1436609882435,76.0
362,1436609882454,78.0
363,1436609882473,79.0
364,1436609882495,79.0
365,1436609882516,81.0
366,1436609882536,81.0
367,1436609882554,83.0
368,1436609882575,83.0
369,1436609882595,83.0
370,1436609882615,83.0
371,1436609882635,83.0
372,1436609882653,83.0
373,1436609882675,84.0
374,1436609882694,85.0
375,1436609882714,85.0
376,1436609882812,85.0
377,1436609882813,85.0
378,1436609882814,83.0
379,1436609882815,83.0
380,1436609882816,83.0
381,1436609882839,83.0
382,1436609882873,86.0
383,1436609882874,86.0
384,1436609882937,86.0
385,1436609882938,88.0
386,1436609882939,88.0
387,1436609882964,91.0
388,1436609882973,91.0
389,1436609882994,92.0
390,1436609883013,92.0
391,1436609883033,91.0
392,1436609883053,91.0
393,1436609883074,91.0
394,1436609883096,93.0
395,1436609883114,93.0
396,1436609883134,92.0
397,1436609883156,92.0
398,1436609883174,90.0
399,1436609883194,90.0
400,1436609883214,89.0
401,1436609883234,89.0
402,1436609883256,87.0
403,1436609883274,87.0
404,1436609883296,86.0
405,1436609883314,86.0
406,1436609883333,86.0
407,1436609883356,86.0
408,1436609883376,86.0
409,1436609883395,88.0
410,1436609883415,88.0
411,1436609883435,86.0
412,1436609883454,86.0
413,1436609883475,85.0
414,1436609883538,84.0
415,1436609883539,84.0
416,1436609883540,83.0
417,1436609883559,83.0
418,1436609883575,87.0
419,1436609883595,87.0
420,1436609883613,87.0
421,1436609883633,87.0
422,1436609883655,86.0
423,1436609883675,86.0
424,1436609883695,81.0
425,1436609883714,81.0
426,1436609883737,81.0
427,1436609883754,82.0
428,1436609883777,82.0
429,1436609883796,84.0
430,1436609883814,84.0
431,1436609883836,85.0
432,1436609883856,85.0
433,1436609883880,88.0
434,1436609883897,88.0
435,1436609883918,90.0
436,1436609883936,90.0
437,1436609883956,90.0
438,1436609883977,90.0
439,1436609883995,90.0
440,1436609884015,91.0
441,1436609884034,91.0
442,1436609884056,95.0
443,1436609884087,95.0
444,1436609884094,96.0
445,1436609884117,91.0
446,1436609884134,91.0
447,1436609884154,91.0
448,1436609884174,91.0
449,1436609884196,90.0
450,1436609884214,90.0
451,1436609884268,90.0
452,1436609884281,90.0
453,1436609884282,93.0
454,1436609884294,93.0
455,1436609884316,93.0
456,1436609884336,90.0
457,1436609884355,90.0
458,1436609884390,89.0
459,1436609884394,89.0
460,1436609884416,90.0
461,1436609884435,90.0
462,1436609884458,92.0
463,1436609884474,92.0
464,1436609884498,93.0
465,1436609884518,93.0
466,1436609884537,100.0
467,1436609884558,105.0
468,1436609884578,105.0
469,1436609884598,104.0
470,1436609884618,104.0
471,1436609884635,100.0
472,1436609884659,100.0
473,1436609884676,98.0
474,1436609884697,98.0
475,1436609884718,95.0
476,1436609884739,95.0
477,1436609884758,94.0
478,1436609884778,97.0
479,1436609884797,97.0
480,1436609884818,96.0
481,1436609884838,96.0
482,1436609884861,93.0
483,1436609884880,93.0
484,1436609884900,98.0
485,1436609884919,98.0
486,1436609884940,100.0
487,1436609885001,100.0
488,1436609885002,100.0
489,1436609885003,101.0
490,1436609885016,101.0
491,1436609885035,101.0
492,1436609885055,101.0
493,1436609885081,102.0
494,1436609885095,102.0
495,1436609885116,102.0
496,1436609885135,102.0
497,1436609885157,103.0
498,1436609885178,104.0
499,1436609885195,104.0
500,1436609885218,105.0
501,1436609885239,105.0
502,1436609885258,104.0
503,1436609885278,104.0
504,1436609885299,102.0
505,1436609885318,102.0
506,1436609885338,104.0
507,1436609885360,104.0
508,1436609885375,106.0
509,1436609885398,107.0
510,1436609885419,107.0
511,1436609885438,108.0
512,1436609885458,108.0
513,1436609885478,110.0
514,1436609885499,110.0
515,1436609885518,111.0
516,1436609885538,111.0
517,1436609885559,112.0
518,1436609885579,116.0
519,1436609885599,116.0
520,1436609885619,120.0
521,1436609885638,120.0
522,1436609885708,121.0
523,1436609885709,121.0
524,1436609885710,126.0
525,1436609885718,126.0
526,1436609885744,129.0
527,1436609885757,129.0
528,1436609885775,126.0
529,1436609885798,124.0
530,1436609885818,124.0
531,1436609885839,123.0
532,1436609885857,123.0
533,1436609885881,122.0
534,1436609885896,122.0
535,1436609885918,128.0
536,1436609885938,128.0
537,1436609885959,128.0
538,1436609885980,128.0
539,1436609886008,120.0
540,1436609886031,122.0
541,1436609886046,122.0
542,1436609886060,124.0
543,1436609886075,124.0
544,1436609886098,125.0
545,1436609886117,125.0
546,1436609886136,127.0
547,1436609886158,127.0
548,1436609886179,131.0
549,1436609886199,133.0
550,1436609886224,133.0
551,1436609886265,133.0
552,1436609886266,133.0
553,1436609886279,133.0
554,1436609886302,133.0
555,1436609886325,136.0
556,1436609886368,136.0
557,1436609886369,138.0
558,1436609886380,138.0
559,1436609886399,136.0
560,1436609886416,135.0
561,1436609886436,135.0
562,1436609886456,134.0
563,1436609886479,134.0
564,1436609886496,133.0
565,1436609886516,133.0
566,1436609886544,134.0
567,1436609886557,134.0
568,1436609886582,136.0
569,1436609886598,136.0
570,1436609886619,139.0
571,1436609886636,137.0
572,1436609886658,137.0
573,1436609886678,138.0
574,1436609886696,138.0
575,1436609886722,142.0
576,1436609886737,142.0
577,1436609886757,144.0
578,1436609886776,144.0
579,1436609886796,150.0
580,1436609886816,156.0
581,1436609886836,156.0
582,1436609886856,155.0
583,1436609886876,155.0
584,1436609886897,154.0
585,1436609886916,154.0
586,1436609886937,154.0
587,1436609886957,154.0
588,1436609886976,154.0
589,1436609886997,154.0
590,1436609887017,151.0
591,1436609887067,149.0
592,1436609887068,149.0
593,1436609887085,152.0
594,1436609887097,152.0
595,1436609887117,149.0
596,1436609887139,149.0
597,1436609887157,150.0
598,1436609887177,150.0
599,1436609887197,155.0
600,1436609887216,155.0
601,1436609887243,158.0
602,1436609887257,161.0
603,1436609887280,161.0
604,1436609887299,167.0
605,1436609887317,167.0
606,1436609887338,170.0
607,1436609887361,170.0
608,1436609887381,172.0
609,1436609887400,172.0
610,1436609887421,172.0
611,1436609887437,170.0
612,1436609887458,170.0
613,1436609887477,170.0
614,1436609887501,170.0
615,1436609887519,175.0
616,1436609887538,175.0
617,1436609887556,184.0
618,1436609887578,184.0
619,1436609887601,185.0
620,1436609887621,185.0
621,1436609887641,175.0
622,1436609887659,170.0
623,1436609887679,170.0
624,1436609887700,171.0
625,1436609887721,171.0
626,1436609887746,174.0
627,1436609887815,174.0
628,1436609887818,176.0
629,1436609887819,176.0
630,1436609887820,176.0
631,1436609887838,176.0
632,1436609887861,179.0
633,1436609887887,182.0
634,1436609887931,182.0
635,1436609887932,184.0
636,1436609887952,184.0
637,1436609887957,186.0
638,1436609887985,186.0
639,1436609888002,188.0
640,1436609888021,188.0
641,1436609888039,188.0
642,1436609888061,188.0
643,1436609888081,188.0
644,1436609888101,190.0
645,1436609888121,190.0
646,1436609888140,191.0
647,1436609888161,191.0
648,1436609888213,189.0
649,1436609888214,189.0
650,1436609888222,187.0
651,1436609888241,187.0
652,1436609888263,189.0
653,1436609888284,195.0
654,1436609888303,195.0
655,1436609888321,199.0
656,1436609888338,199.0
657,1436609888358,200.0
658,1436609888378,200.0
659,1436609888404,203.0
660,1436609888424,203.0
661,1436609888445,206.0
662,1436609888459,206.0
663,1436609888486,208.0
664,1436609888569,209.0
665,1436609888570,209.0
666,1436609888571,207.0
667,1436609888572,207.0
668,1436609888595,199.0
669,1436609888600,199.0
670,1436609888620,194.0
671,1436609888661,194.0
672,1436609888662,192.0
673,1436609888685,192.0
674,1436609888698,191.0
675,1436609888718,188.0
676,1436609888738,188.0
677,1436609888759,185.0
678,1436609888782,185.0
679,1436609888802,188.0
680,1436609888821,188.0
681,1436609888841,193.0
682,1436609888860,193.0
683,1436609888885,192.0
684,1436609888900,197.0
685,1436609888920,197.0
686,1436609888940,200.0
687,1436609888962,200.0
688,1436609888982,205.0
689,1436609889002,205.0
690,1436609889022,208.0
691,1436609889042,208.0
692,1436609889061,207.0
693,1436609889081,207.0
694,1436609889102,201.0
695,1436609889122,199.0
696,1436609889141,199.0
697,1436609889162,205.0
698,1436609889180,205.0
699,1436609889210,212.0
700,1436609889220,212.0
701,1436609889267,212.0
702,1436609889268,212.0
703,1436609889288,211.0
704,1436609889299,211.0
705,1436609889328,222.0
706,1436609889341,223.0
707,1436609889360,223.0
708,1436609889381,212.0
709,1436609889401,212.0
710,1436609889420,221.0
711,1436609889440,221.0
712,1436609889462,225.0
713,1436609889479,225.0
714,1436609889502,225.0
715,1436609889523,225.0
716,1436609889543,225.0
717,1436609889562,225.0
718,1436609889582,225.0
719,1436609889602,227.0
720,1436609889623,227.0
721,1436609889643,230.0
722,1436609889660,230.0
723,1436609889682,228.0
724,1436609889702,228.0
725,1436609889720,215.0
726,1436609889741,201.0
727,1436609889762,201.0
728,1436609889783,212.0
729,1436609889804,212.0
730,1436609889824,204.0
731,1436609889840,204.0
732,1436609889861,188.0
733,1436609889882,188.0
734,1436609889903,185.0
735,1436609889931,185.0
736,1436609890000,184.0
737,1436609890001,186.0
738,1436609890002,186.0
739,1436609890003,193.0
740,1436609890019,193.0
741,1436609890040,201.0
742,1436609890059,201.0
743,1436609890080,205.0
744,1436609890102,205.0
745,1436609890122,208.0
746,1436609890141,207.0
747,1436609890160,207.0
748,1436609890183,207.0
749,1436609890204,207.0
750,1436609890223,208.0
751,1436609890243,208.0
752,1436609890263,210.0
753,1436609890283,210.0
754,1436609890303,208.0
755,1436609890323,208.0
756,1436609890343,211.0
757,1436609890363,214.0
758,1436609890382,214.0
759,1436609890403,213.0
760,1436609890423,213.0
761,1436609890443,213.0
762,1436609890463,213.0
763,1436609890483,212.0
764,1436609890501,212.0
765,1436609890523,215.0
766,1436609890542,215.0
767,1436609890563,217.0
768,1436609890583,218.0
769,1436609890603,218.0
770,1436609890621,219.0
771,1436609890648,219.0
772,1436609890712,218.0
773,1436609890713,218.0
774,1436609890714,216.0
775,1436609890723,216.0
776,1436609890744,216.0
777,1436609890762,219.0
778,1436609890781,219.0
779,1436609890802,215.0
780,1436609890821,215.0
781,1436609890844,200.0
782,1436609890863,200.0
783,1436609890884,187.0
784,1436609890902,187.0
785,1436609890920,188.0
786,1436609890943,188.0
787,1436609890964,187.0
788,1436609890984,190.0
789,1436609891004,190.0
790,1436609891022,191.0
791,1436609891044,191.0
792,1436609891061,193.0
793,1436609891097,193.0
794,1436609891109,192.0
795,1436609891136,192.0
796,1436609891141,181.0
797,1436609891163,181.0
798,1436609891183,182.0
799,1436609891205,192.0
800,1436609891223,192.0
801,1436609891243,194.0
802,1436609891264,194.0
803,1436609891283,192.0
804,1436609891304,192.0
805,1436609891324,192.0
806,1436609891344,192.0
807,1436609891363,193.0
808,1436609891382,193.0
809,1436609891406,197.0
810,1436609891463,202.0
811,1436609891464,202.0
812,1436609891465,202.0
813,1436609891481,202.0
814,1436609891502,200.0
815,1436609891522,200.0
816,1436609891541,208.0
817,1436609891561,208.0
818,1436609891582,199.0
819,1436609891601,197.0
820,1436609891623,197.0
821,1436609891643,207.0
822,1436609891662,207.0
823,1436609891685,209.0
824,1436609891704,209.0
825,1436609891723,209.0
826,1436609891743,209.0
827,1436609891764,207.0
828,1436609891784,207.0
829,1436609891804,204.0
830,1436609891823,203.0
831,1436609891842,203.0
832,1436609891865,205.0
833,1436609891888,205.0
834,1436609891903,194.0
835,1436609891921,194.0
836,1436609891942,179.0
837,1436609891962,179.0
838,1436609891986,170.0
839,1436609892005,170.0
840,1436609892026,175.0
841,1436609892043,179.0
842,1436609892062,179.0
843,1436609892082,162.0
844,1436609892103,162.0
845,1436609892123,156.0
846,1436609892143,156.0
847,1436609892190,158.0
