id,attr_time,attr_light
1,1436800486872,25.0
2,1436800486892,25.0
3,1436800486914,25.0
4,1436800486934,25.0
5,1436800486954,25.0
6,1436800486977,25.0
7,1436800486999,25.0
8,1436800487014,25.0
9,1436800487035,25.0
10,1436800487055,25.0
11,1436800487075,25.0
12,1436800487095,25.0
13,1436800487115,25.0
14,1436800487136,25.0
15,1436800487155,25.0
16,1436800487175,25.0
17,1436800487195,25.0
18,1436800487214,25.0
19,1436800487233,25.0
20,1436800487253,25.0
21,1436800487275,25.0
22,1436800487295,25.0
23,1436800487315,25.0
24,1436800487336,25.0
25,1436800487353,25.0
26,1436800487375,25.0
27,1436800487396,25.0
28,1436800487416,25.0
29,1436800487436,25.0
30,1436800487455,25.0
31,1436800487475,25.0
32,1436800487493,25.0
33,1436800487562,25.0
34,1436800487563,25.0
35,1436800487564,25.0
36,1436800487574,25.0
37,1436800487594,25.0
38,1436800487615,25.0
39,1436800487633,25.0
40,1436800487657,25.0
41,1436800487675,25.0
42,1436800487694,25.0
43,1436800487714,25.0
44,1436800487735,25.0
45,1436800487753,25.0
46,1436800487774,25.0
47,1436800487796,25.0
48,1436800487816,25.0
49,1436800487836,25.0
50,1436800487856,25.0
51,1436800487874,25.0
52,1436800487895,25.0
53,1436800487920,25.0
54,1436800487936,25.0
55,1436800487954,25.0
56,1436800487976,25.0
57,1436800487995,25.0
58,1436800488016,25.0
59,1436800488036,25.0
60,1436800488056,25.0
61,1436800488074,25.0
62,1436800488095,25.0
63,1436800488115,25.0
64,1436800488133,25.0
65,1436800488154,25.0
66,1436800488177,25.0
67,1436800488195,25.0
68,1436800488220,25.0
69,1436800488291,25.0
70,1436800488293,25.0
71,1436800488294,25.0
72,1436800488295,25.0
73,1436800488314,25.0
74,1436800488333,25.0
75,1436800488353,25.0
76,1436800488379,25.0
77,1436800488395,25.0
78,1436800488415,25.0
79,1436800488440,25.0
80,1436800488455,25.0
81,1436800488477,25.0
82,1436800488494,25.0
83,1436800488517,25.0
84,1436800488536,25.0
85,1436800488556,25.0
86,1436800488577,25.0
87,1436800488596,25.0
88,1436800488617,25.0
89,1436800488636,25.0
90,1436800488657,25.0
91,1436800488676,25.0
92,1436800488696,25.0
93,1436800488714,25.0
94,1436800488744,25.0
95,1436800488754,25.0
96,1436800488774,25.0
97,1436800488794,25.0
98,1436800488814,25.0
99,1436800488834,25.0
100,1436800488855,25.0
101,1436800488874,25.0
102,1436800488895,25.0
103,1436800488916,25.0
104,1436800488935,25.0
105,1436800489046,25.0
106,1436800489047,25.0
107,1436800489048,25.0
108,1436800489049,25.0
109,1436800489050,25.0
110,1436800489060,25.0
111,1436800489079,25.0
112,1436800489096,25.0
113,1436800489114,25.0
114,1436800489136,25.0
115,1436800489155,25.0
116,1436800489175,25.0
117,1436800489202,25.0
118,1436800489218,25.0
119,1436800489237,25.0
120,1436800489258,25.0
121,1436800489277,25.0
122,1436800489297,25.0
123,1436800489317,25.0
124,1436800489337,25.0
125,1436800489357,25.0
126,1436800489377,25.0
127,1436800489397,25.0
128,1436800489417,25.0
129,1436800489436,25.0
130,1436800489457,25.0
131,1436800489477,25.0
132,1436800489530,25.0
133,1436800489531,25.0
134,1436800489534,25.0
135,1436800489560,25.0
136,1436800489577,25.0
137,1436800489598,25.0
138,1436800489617,25.0
139,1436800489637,25.0
140,1436800489657,25.0
141,1436800489676,25.0
142,1436800489695,25.0
143,1436800489718,25.0
144,1436800489782,25.0
145,1436800489783,25.0
146,1436800489784,25.0
147,1436800489795,25.0
148,1436800489819,25.0
149,1436800489852,25.0
150,1436800489855,25.0
151,1436800489877,25.0
152,1436800489899,25.0
153,1436800489917,25.0
154,1436800489936,25.0
155,1436800489955,25.0
156,1436800489979,25.0
157,1436800489995,25.0
158,1436800490019,25.0
159,1436800490035,25.0
160,1436800490058,25.0
161,1436800490078,25.0
162,1436800490098,25.0
163,1436800490119,25.0
164,1436800490140,25.0
165,1436800490155,25.0
166,1436800490178,25.0
167,1436800490197,25.0
168,1436800490217,25.0
169,1436800490236,25.0
170,1436800490258,25.0
171,1436800490278,25.0
172,1436800490298,25.0
173,1436800490318,25.0
174,1436800490337,25.0
175,1436800490361,25.0
176,1436800490405,25.0
177,1436800490406,25.0
178,1436800490415,25.0
179,1436800490447,25.0
180,1436800490522,25.0
181,1436800490523,25.0
182,1436800490524,25.0
183,1436800490525,25.0
184,1436800490538,25.0
185,1436800490557,25.0
186,1436800490576,25.0
187,1436800490597,25.0
188,1436800490617,25.0
189,1436800490637,25.0
190,1436800490657,25.0
191,1436800490676,25.0
192,1436800490699,25.0
193,1436800490716,25.0
194,1436800490739,25.0
195,1436800490756,25.0
196,1436800490779,25.0
197,1436800490799,25.0
198,1436800490819,25.0
199,1436800490839,25.0
200,1436800490856,25.0
201,1436800490877,25.0
202,1436800490897,25.0
203,1436800490916,25.0
204,1436800490939,25.0
205,1436800490961,25.0
206,1436800490979,25.0
207,1436800491002,25.0
208,1436800491017,25.0
209,1436800491039,25.0
210,1436800491063,25.0
211,1436800491080,25.0
212,1436800491098,25.0
213,1436800491119,25.0
214,1436800491138,25.0
215,1436800491159,25.0
216,1436800491181,25.0
217,1436800491249,25.0
218,1436800491250,25.0
219,1436800491251,25.0
220,1436800491259,25.0
221,1436800491277,25.0
222,1436800491298,25.0
223,1436800491316,25.0
224,1436800491338,25.0
225,1436800491356,25.0
226,1436800491380,25.0
227,1436800491397,25.0
228,1436800491419,25.0
229,1436800491439,25.0
230,1436800491459,25.0
231,1436800491478,25.0
232,1436800491499,25.0
233,1436800491520,25.0
234,1436800491540,25.0
235,1436800491559,25.0
236,1436800491578,25.0
237,1436800491597,25.0
238,1436800491630,25.0
239,1436800491668,25.0
240,1436800491669,25.0
241,1436800491677,25.0
242,1436800491698,25.0
243,1436800491718,25.0
244,1436800491739,25.0
245,1436800491759,25.0
246,1436800491778,25.0
247,1436800491800,25.0
248,1436800491819,25.0
249,1436800491838,25.0
250,1436800491859,25.0
251,1436800491877,25.0
252,1436800491901,25.0
253,1436800491987,25.0
254,1436800492002,25.0
255,1436800492003,25.0
256,1436800492004,25.0
257,1436800492005,25.0
258,1436800492019,25.0
259,1436800492049,25.0
260,1436800492057,25.0
261,1436800492091,25.0
262,1436800492098,25.0
263,1436800492118,25.0
264,1436800492138,25.0
265,1436800492158,25.0
266,1436800492180,25.0
267,1436800492200,25.0
268,1436800492220,25.0
269,1436800492240,25.0
270,1436800492260,25.0
271,1436800492279,25.0
272,1436800492299,25.0
273,1436800492320,25.0
274,1436800492340,25.0
275,1436800492360,25.0
276,1436800492379,25.0
277,1436800492399,25.0
278,1436800492420,25.0
279,1436800492441,25.0
280,1436800492460,25.0
281,1436800492479,25.0
282,1436800492500,25.0
283,1436800492521,25.0
284,1436800492541,25.0
285,1436800492560,25.0
286,1436800492578,25.0
287,1436800492598,25.0
288,1436800492619,25.0
289,1436800492638,25.0
290,1436800492659,25.0
291,1436800492725,25.0
292,1436800492726,25.0
293,1436800492727,25.0
294,1436800492737,25.0
295,1436800492760,25.0
296,1436800492777,25.0
297,1436800492798,25.0
298,1436800492819,25.0
299,1436800492839,25.0
300,1436800492859,25.0
301,1436800492879,25.0
302,1436800492900,25.0
303,1436800492918,25.0
304,1436800492940,25.0
305,1436800492960,25.0
306,1436800492978,25.0
307,1436800493007,25.0
308,1436800493018,25.0
309,1436800493040,25.0
310,1436800493057,25.0
311,1436800493079,25.0
312,1436800493103,25.0
313,1436800493118,25.0
314,1436800493140,25.0
315,1436800493158,25.0
316,1436800493178,25.0
317,1436800493199,25.0
318,1436800493221,25.0
319,1436800493242,25.0
320,1436800493263,25.0
321,1436800493279,25.0
322,1436800493298,25.0
323,1436800493318,25.0
324,1436800493338,25.0
325,1436800493359,25.0
326,1436800493378,25.0
327,1436800493447,25.0
328,1436800493448,25.0
329,1436800493449,25.0
330,1436800493458,25.0
331,1436800493484,25.0
332,1436800493499,25.0
333,1436800493519,25.0
334,1436800493539,25.0
335,1436800493558,25.0
336,1436800493580,25.0
337,1436800493600,25.0
338,1436800493619,25.0
339,1436800493639,25.0
340,1436800493661,25.0
341,1436800493680,25.0
342,1436800493702,25.0
343,1436800493718,25.0
344,1436800493740,25.0
345,1436800493761,25.0
346,1436800493779,25.0
347,1436800493802,25.0
348,1436800493821,25.0
349,1436800493840,25.0
350,1436800493862,25.0
351,1436800493879,25.0
352,1436800493900,25.0
353,1436800493920,25.0
354,1436800493942,25.0
355,1436800493984,25.0
356,1436800493985,25.0
357,1436800494009,25.0
358,1436800494019,25.0
359,1436800494039,25.0
360,1436800494059,25.0
361,1436800494079,25.0
362,1436800494099,25.0
363,1436800494128,25.0
364,1436800494145,25.0
365,1436800494159,25.0
366,1436800494179,25.0
367,1436800494199,25.0
368,1436800494219,25.0
369,1436800494239,25.0
370,1436800494262,25.0
371,1436800494289,25.0
372,1436800494302,25.0
373,1436800494320,25.0
374,1436800494340,25.0
375,1436800494360,25.0
376,1436800494382,25.0
377,1436800494402,25.0
378,1436800494422,25.0
379,1436800494440,25.0
380,1436800494460,25.0
381,1436800494482,25.0
382,1436800494502,25.0
383,1436800494522,25.0
384,1436800494540,25.0
385,1436800494561,25.0
386,1436800494583,25.0
387,1436800494600,25.0
388,1436800494621,25.0
389,1436800494639,25.0
390,1436800494661,25.0
391,1436800494684,25.0
392,1436800494702,25.0
393,1436800494724,25.0
394,1436800494742,25.0
395,1436800494761,25.0
396,1436800494780,25.0
397,1436800494800,25.0
398,1436800494822,25.0
399,1436800494840,25.0
400,1436800494893,25.0
401,1436800494895,25.0
402,1436800494910,25.0
403,1436800494920,25.0
404,1436800494942,25.0
405,1436800495014,25.0
406,1436800495015,25.0
407,1436800495016,25.0
408,1436800495045,25.0
409,1436800495046,25.0
410,1436800495064,25.0
411,1436800495081,25.0
412,1436800495100,25.0
413,1436800495122,25.0
414,1436800495142,25.0
415,1436800495162,25.0
416,1436800495182,25.0
417,1436800495203,25.0
418,1436800495222,25.0
419,1436800495243,25.0
420,1436800495263,25.0
421,1436800495284,25.0
422,1436800495301,25.0
423,1436800495323,25.0
424,1436800495342,24.0
425,1436800495363,24.0
426,1436800495382,24.0
427,1436800495402,24.0
428,1436800495423,24.0
429,1436800495443,24.0
430,1436800495468,24.0
431,1436800495495,24.0
432,1436800495515,24.0
433,1436800495525,24.0
434,1436800495540,24.0
435,1436800495570,24.0
436,1436800495626,24.0
437,1436800495627,24.0
438,1436800495628,24.0
439,1436800495649,24.0
440,1436800495660,24.0
441,1436800495683,24.0
442,1436800495700,24.0
443,1436800495720,24.0
444,1436800495742,24.0
445,1436800495761,24.0
446,1436800495781,24.0
447,1436800495804,24.0
448,1436800495821,24.0
449,1436800495841,24.0
450,1436800495864,24.0
451,1436800495881,24.0
452,1436800495903,24.0
453,1436800495923,24.0
454,1436800495943,24.0
455,1436800495964,24.0
456,1436800495984,24.0
457,1436800496002,24.0
458,1436800496024,24.0
459,1436800496047,24.0
460,1436800496063,24.0
461,1436800496085,24.0
462,1436800496106,24.0
463,1436800496125,24.0
464,1436800496144,24.0
465,1436800496162,24.0
466,1436800496181,24.0
467,1436800496201,24.0
468,1436800496227,24.0
469,1436800496246,24.0
470,1436800496266,24.0
471,1436800496283,24.0
472,1436800496303,24.0
473,1436800496371,24.0
474,1436800496372,24.0
475,1436800496373,24.0
476,1436800496382,24.0
477,1436800496402,24.0
478,1436800496422,24.0
479,1436800496441,24.0
480,1436800496461,24.0
481,1436800496482,24.0
482,1436800496504,24.0
483,1436800496522,24.0
484,1436800496542,24.0
485,1436800496561,24.0
486,1436800496584,24.0
487,1436800496604,24.0
488,1436800496624,24.0
489,1436800496644,24.0
490,1436800496664,24.0
491,1436800496685,24.0
492,1436800496704,24.0
493,1436800496725,24.0
494,1436800496744,24.0
495,1436800496763,24.0
496,1436800496785,24.0
497,1436800496804,24.0
498,1436800496825,24.0
499,1436800496844,24.0
500,1436800496865,24.0
501,1436800496883,24.0
502,1436800496904,24.0
503,1436800496928,24.0
504,1436800496944,24.0
505,1436800496961,24.0
506,1436800496985,24.0
507,1436800497003,24.0
508,1436800497086,24.0
509,1436800497087,24.0
510,1436800497088,24.0
511,1436800497089,24.0
512,1436800497110,24.0
513,1436800497122,24.0
514,1436800497143,24.0
515,1436800497163,24.0
516,1436800497185,24.0
517,1436800497204,24.0
518,1436800497222,24.0
519,1436800497246,24.0
520,1436800497263,24.0
521,1436800497284,24.0
522,1436800497302,24.0
523,1436800497325,24.0
524,1436800497347,24.0
525,1436800497365,24.0
526,1436800497385,24.0
527,1436800497405,24.0
528,1436800497425,24.0
529,1436800497445,24.0
530,1436800497466,24.0
531,1436800497486,24.0
532,1436800497502,24.0
533,1436800497525,24.0
534,1436800497546,24.0
535,1436800497565,24.0
536,1436800497585,24.0
537,1436800497613,24.0
538,1436800497622,24.0
539,1436800497642,24.0
540,1436800497663,24.0
541,1436800497685,24.0
542,1436800497711,24.0
543,1436800497722,24.0
544,1436800497744,24.0
545,1436800497762,24.0
546,1436800497786,24.0
547,1436800497803,24.0
548,1436800497825,24.0
549,1436800497842,24.0
550,1436800497863,24.0
551,1436800497886,24.0
552,1436800497905,24.0
553,1436800497923,24.0
554,1436800497944,24.0
555,1436800497963,24.0
556,1436800497986,24.0
557,1436800498003,24.0
558,1436800498027,24.0
559,1436800498047,24.0
560,1436800498065,24.0
561,1436800498082,24.0
562,1436800498107,24.0
563,1436800498127,24.0
564,1436800498147,24.0
565,1436800498167,24.0
566,1436800498187,24.0
567,1436800498207,24.0
568,1436800498227,24.0
569,1436800498247,24.0
570,1436800498267,24.0
571,1436800498284,24.0
572,1436800498307,24.0
573,1436800498323,24.0
574,1436800498346,24.0
575,1436800498367,24.0
576,1436800498387,24.0
577,1436800498407,24.0
578,1436800498427,24.0
579,1436800498447,24.0
580,1436800498467,24.0
581,1436800498487,24.0
582,1436800498503,24.0
583,1436800498528,24.0
584,1436800498545,24.0
585,1436800498562,24.0
586,1436800498585,24.0
587,1436800498604,24.0
588,1436800498623,24.0
589,1436800498644,24.0
590,1436800498665,24.0
591,1436800498686,24.0
592,1436800498705,24.0
593,1436800498726,24.0
594,1436800498744,24.0
595,1436800498768,24.0
596,1436800498786,24.0
597,1436800498804,24.0
598,1436800498827,24.0
599,1436800498847,24.0
600,1436800498867,24.0
601,1436800498885,24.0
602,1436800498907,24.0
603,1436800498927,24.0
604,1436800498952,24.0
605,1436800498966,24.0
606,1436800498987,24.0
607,1436800499007,24.0
608,1436800499031,24.0
609,1436800499047,24.0
610,1436800499067,24.0
611,1436800499088,24.0
612,1436800499107,24.0
613,1436800499127,24.0
614,1436800499148,24.0
615,1436800499168,24.0
616,1436800499189,24.0
617,1436800499206,23.0
618,1436800499226,23.0
619,1436800499297,23.0
620,1436800499298,23.0
621,1436800499299,23.0
622,1436800499307,23.0
623,1436800499324,23.0
624,1436800499347,23.0
625,1436800499364,23.0
626,1436800499386,23.0
627,1436800499404,24.0
628,1436800499428,24.0
629,1436800499449,24.0
630,1436800499465,24.0
631,1436800499484,24.0
632,1436800499534,24.0
633,1436800499535,24.0
634,1436800499548,24.0
635,1436800499568,24.0
636,1436800499588,24.0
637,1436800499607,25.0
638,1436800499628,25.0
639,1436800499648,25.0
640,1436800499668,25.0
641,1436800499686,25.0
642,1436800499706,25.0
643,1436800499728,25.0
644,1436800499748,25.0
645,1436800499768,24.0
646,1436800499788,24.0
647,1436800499805,24.0
648,1436800499827,24.0
649,1436800499847,23.0
650,1436800499882,23.0
651,1436800499889,23.0
652,1436800499904,23.0
653,1436800499929,23.0
654,1436800499949,22.0
655,1436800500036,22.0
656,1436800500037,22.0
657,1436800500038,22.0
658,1436800500039,21.0
659,1436800500068,21.0
660,1436800500069,20.0
661,1436800500085,20.0
662,1436800500113,21.0
663,1436800500125,21.0
664,1436800500148,21.0
665,1436800500166,21.0
666,1436800500185,22.0
667,1436800500212,22.0
668,1436800500228,24.0
669,1436800500250,24.0
670,1436800500268,26.0
671,1436800500288,26.0
672,1436800500308,29.0
673,1436800500327,29.0
674,1436800500350,33.0
675,1436800500368,33.0
676,1436800500388,32.0
677,1436800500408,32.0
678,1436800500427,32.0
679,1436800500447,32.0
680,1436800500476,32.0
681,1436800500485,32.0
682,1436800500506,32.0
683,1436800500526,32.0
684,1436800500550,32.0
685,1436800500569,32.0
686,1436800500588,30.0
687,1436800500608,30.0
688,1436800500630,29.0
689,1436800500649,31.0
690,1436800500669,31.0
691,1436800500687,35.0
692,1436800500707,35.0
693,1436800500737,35.0
694,1436800500791,35.0
695,1436800500792,36.0
696,1436800500793,36.0
697,1436800500813,40.0
698,1436800500826,40.0
699,1436800500847,42.0
700,1436800500866,42.0
701,1436800500887,45.0
702,1436800500906,45.0
703,1436800500926,44.0
704,1436800500952,44.0
705,1436800500969,40.0
706,1436800500986,40.0
707,1436800501008,40.0
708,1436800501026,40.0
709,1436800501049,40.0
710,1436800501070,40.0
711,1436800501104,41.0
712,1436800501105,41.0
713,1436800501125,43.0
714,1436800501146,43.0
715,1436800501170,45.0
716,1436800501186,45.0
717,1436800501215,46.0
718,1436800501241,46.0
719,1436800501249,48.0
720,1436800501270,48.0
721,1436800501289,53.0
722,1436800501309,53.0
723,1436800501328,61.0
724,1436800501348,61.0
725,1436800501368,72.0
726,1436800501390,72.0
727,1436800501410,84.0
728,1436800501430,93.0
729,1436800501447,93.0
730,1436800501475,97.0
731,1436800501541,97.0
732,1436800501542,96.0
733,1436800501543,96.0
734,1436800501549,94.0
735,1436800501567,94.0
736,1436800501591,91.0
737,1436800501606,91.0
738,1436800501626,88.0
739,1436800501648,88.0
740,1436800501667,87.0
741,1436800501688,87.0
742,1436800501707,85.0
743,1436800501729,85.0
744,1436800501750,88.0
745,1436800501769,88.0
746,1436800501789,91.0
747,1436800501809,91.0
748,1436800501829,91.0
749,1436800501849,91.0
750,1436800501868,90.0
751,1436800501887,90.0
752,1436800501910,89.0
753,1436800501930,89.0
754,1436800501947,91.0
755,1436800501968,91.0
756,1436800501987,97.0
757,1436800502011,97.0
758,1436800502027,105.0
759,1436800502047,105.0
760,1436800502070,114.0
761,1436800502092,114.0
762,1436800502110,122.0
763,1436800502126,122.0
764,1436800502147,125.0
765,1436800502168,125.0
766,1436800502187,124.0
767,1436800502210,117.0
768,1436800502254,117.0
769,1436800502255,102.0
770,1436800502267,102.0
771,1436800502287,90.0
772,1436800502307,90.0
773,1436800502327,81.0
774,1436800502347,81.0
775,1436800502368,73.0
776,1436800502387,73.0
777,1436800502407,67.0
778,1436800502434,67.0
779,1436800502448,61.0
780,1436800502470,61.0
781,1436800502490,56.0
782,1436800502510,56.0
783,1436800502530,53.0
784,1436800502550,53.0
785,1436800502569,50.0
786,1436800502589,50.0
787,1436800502610,49.0
788,1436800502630,49.0
789,1436800502650,49.0
790,1436800502668,49.0
791,1436800502697,51.0
792,1436800502708,51.0
793,1436800502727,53.0
794,1436800502747,53.0
795,1436800502768,56.0
796,1436800502787,56.0
797,1436800502807,57.0
798,1436800502827,57.0
799,1436800502852,56.0
800,1436800502868,56.0
801,1436800502887,53.0
802,1436800502908,53.0
803,1436800502936,50.0
804,1436800503002,50.0
805,1436800503003,46.0
806,1436800503004,45.0
807,1436800503009,45.0
808,1436800503036,45.0
809,1436800503056,45.0
810,1436800503070,45.0
811,1436800503088,45.0
812,1436800503107,47.0
813,1436800503127,47.0
814,1436800503147,49.0
815,1436800503175,49.0
816,1436800503187,52.0
817,1436800503208,52.0
818,1436800503227,55.0
819,1436800503247,55.0
820,1436800503267,57.0
821,1436800503287,57.0
822,1436800503307,57.0
823,1436800503327,57.0
824,1436800503347,53.0
825,1436800503367,53.0
826,1436800503387,49.0
827,1436800503407,49.0
828,1436800503429,45.0
829,1436800503447,45.0
830,1436800503470,44.0
831,1436800503489,44.0
832,1436800503509,44.0
833,1436800503529,44.0
834,1436800503549,42.0
835,1436800503569,42.0
836,1436800503588,40.0
837,1436800503609,40.0
838,1436800503630,38.0
839,1436800503650,38.0
840,1436800503669,38.0
841,1436800503690,38.0
842,1436800503710,38.0
843,1436800503779,38.0
844,1436800503780,40.0
845,1436800503781,41.0
846,1436800503789,41.0
847,1436800503812,43.0
848,1436800503829,43.0
849,1436800503848,46.0
850,1436800503869,46.0
851,1436800503889,49.0
852,1436800503910,49.0
853,1436800503939,52.0
854,1436800503952,52.0
855,1436800503969,54.0
856,1436800503992,54.0
857,1436800504009,55.0
858,1436800504029,55.0
859,1436800504050,51.0
860,1436800504072,51.0
861,1436800504092,40.0
862,1436800504112,40.0
863,1436800504132,28.0
864,1436800504150,28.0
865,1436800504170,19.0
866,1436800504192,19.0
867,1436800504212,15.0
868,1436800504232,15.0
869,1436800504250,12.0
870,1436800504270,12.0
871,1436800504291,10.0
872,1436800504311,10.0
