id,attr_time,attr_x,attr_y,attr_z
1,1436624160017,-47.257,15.211,-9.342
2,1436624160037,-47.257,15.211,-9.342
3,1436624160057,-47.257,15.211,-9.342
4,1436624160078,-47.257,15.211,-9.342
5,1436624160097,-47.257,15.211,-9.678
6,1436624160119,-47.257,15.211,-9.678
7,1436624160137,-47.257,15.211,-9.678
8,1436624160157,-47.257,15.211,-9.678
9,1436624160179,-47.257,15.211,-9.678
10,1436624160201,-47.257,15.211,-9.678
11,1436624160221,-47.257,15.211,-9.678
12,1436624160240,-47.257,15.211,-9.678
13,1436624160261,-47.257,15.211,-9.678
14,1436624160279,-47.257,15.211,-9.678
15,1436624160301,-47.257,15.211,-9.678
16,1436624160321,-47.257,15.211,-9.989
17,1436624160343,-47.257,15.211,-9.989
18,1436624160359,-47.257,15.211,-9.989
19,1436624160379,-47.257,15.211,-9.989
20,1436624160403,-47.257,15.211,-9.989
21,1436624160423,-47.257,15.211,-9.989
22,1436624160443,-47.257,15.211,-9.989
23,1436624160461,-47.257,15.211,-9.989
24,1436624160477,-47.257,15.211,-9.989
25,1436624160500,-47.257,15.211,-9.989
26,1436624160518,-47.257,15.211,-10.305
27,1436624160549,-47.257,15.211,-10.305
28,1436624160566,-47.257,15.211,-10.305
29,1436624160584,-47.257,15.211,-10.305
30,1436624160602,-47.257,15.211,-10.305
31,1436624160762,-47.257,15.211,-10.305
32,1436624160763,-47.257,15.211,-10.305
33,1436624160764,-47.257,15.211,-10.305
34,1436624160765,-47.257,15.211,-10.305
35,1436624160766,-47.257,15.211,-10.305
36,1436624160767,-47.257,15.211,-10.305
37,1436624160768,-47.257,15.211,-10.617
38,1436624160769,-47.257,15.211,-10.617
39,1436624160787,-47.257,15.211,-10.617
40,1436624160845,-47.257,15.211,-10.617
41,1436624160846,-47.257,15.211,-10.617
42,1436624160847,-47.257,15.211,-10.617
43,1436624160867,-47.257,15.211,-10.617
44,1436624160878,-47.257,15.211,-10.617
45,1436624160903,-47.257,15.211,-10.617
46,1436624160918,-47.257,15.211,-10.617
47,1436624160937,-47.257,15.211,-10.617
48,1436624160957,-47.257,15.211,-10.617
49,1436624160980,-47.257,15.211,-10.617
50,1436624160997,-47.257,15.211,-10.617
51,1436624161018,-47.257,15.211,-10.617
52,1436624161041,-47.257,15.211,-10.617
53,1436624161061,-47.257,15.211,-10.617
54,1436624161081,-47.257,15.211,-10.617
55,1436624161099,-47.257,15.211,-10.617
56,1436624161118,-47.257,15.211,-10.617
57,1436624161139,-47.257,15.211,-10.617
58,1436624161158,-47.257,15.211,-10.617
59,1436624161181,-47.257,15.211,-10.617
60,1436624161200,-47.257,15.211,-10.617
61,1436624161221,-47.257,15.211,-10.617
62,1436624161241,-47.257,15.211,-10.617
63,1436624161260,-47.257,15.211,-10.617
64,1436624161279,-47.257,15.211,-10.617
65,1436624161298,-47.257,15.211,-10.617
66,1436624161321,-47.257,15.211,-10.617
67,1436624161341,-47.257,15.211,-10.617
68,1436624161359,-47.257,15.211,-10.617
69,1436624161381,-47.257,15.211,-10.617
70,1436624161398,-47.257,15.211,-10.617
71,1436624161461,-47.257,15.211,-10.617
72,1436624161462,-47.257,15.211,-10.617
73,1436624161463,-47.257,15.211,-10.617
74,1436624161481,-47.257,15.211,-10.617
75,1436624161503,-47.257,15.211,-10.617
76,1436624161518,-47.257,15.211,-10.617
77,1436624161539,-47.257,15.211,-10.617
78,1436624161560,-47.257,15.211,-10.617
79,1436624161580,-47.257,15.211,-10.617
80,1436624161600,-47.257,15.211,-10.617
81,1436624161619,-47.257,15.211,-10.617
82,1436624161645,-47.257,15.211,-10.617
83,1436624161661,-47.257,15.211,-10.617
84,1436624161682,-47.257,15.211,-10.617
85,1436624161702,-47.257,15.211,-10.617
86,1436624161720,-47.257,15.211,-10.617
87,1436624161742,-47.257,15.211,-10.617
88,1436624161762,-47.257,15.211,-10.617
89,1436624161782,-47.257,15.211,-10.617
90,1436624161801,-47.257,15.211,-10.617
91,1436624161821,-47.257,15.211,-10.617
92,1436624161841,-47.257,15.211,-10.285
93,1436624161860,-47.257,15.211,-10.285
94,1436624161882,-47.257,15.211,-10.285
95,1436624161902,-47.257,15.211,-10.285
96,1436624161923,-47.257,15.211,-10.285
97,1436624161942,-47.257,15.211,-10.285
98,1436624161962,-47.257,15.211,-10.285
99,1436624161982,-47.257,15.211,-10.285
100,1436624162002,-47.257,15.211,-10.285
101,1436624162023,-47.257,15.211,-10.285
102,1436624162043,-47.257,15.211,-10.285
103,1436624162063,-47.257,15.211,-10.285
104,1436624162083,-47.257,15.211,-10.285
105,1436624162101,-47.257,15.211,-10.285
106,1436624162122,-47.257,15.211,-10.285
107,1436624162194,-47.257,15.211,-10.285
108,1436624162195,-47.257,15.211,-10.285
109,1436624162196,-47.257,15.211,-10.285
110,1436624162202,-47.257,15.211,-10.285
111,1436624162231,-47.257,15.211,-10.285
112,1436624162242,-47.257,15.211,-10.285
113,1436624162260,-47.257,15.211,-10.285
114,1436624162281,-47.257,15.211,-10.285
115,1436624162299,-47.257,15.211,-10.285
116,1436624162324,-47.257,15.211,-10.285
117,1436624162340,-47.257,15.211,-10.285
118,1436624162361,-47.257,15.211,-10.285
119,1436624162379,-47.257,15.211,-10.285
120,1436624162403,-47.257,15.211,-10.285
121,1436624162424,-47.257,15.211,-10.285
122,1436624162439,-47.257,15.211,-10.285
123,1436624162462,-47.257,15.211,-10.285
124,1436624162483,-47.257,15.211,-10.285
125,1436624162503,-47.257,15.211,-10.285
126,1436624162523,-47.257,15.211,-10.285
127,1436624162542,-47.257,15.211,-10.285
128,1436624162564,-47.257,15.211,-10.285
129,1436624162580,-47.257,15.211,-10.618
130,1436624162603,-47.257,15.211,-10.618
131,1436624162623,-47.257,15.211,-10.618
132,1436624162678,-47.257,15.211,-10.618
133,1436624162679,-47.257,15.211,-10.618
134,1436624162680,-47.257,15.211,-10.618
135,1436624162702,-47.257,15.211,-10.618
136,1436624162723,-47.257,15.211,-10.618
137,1436624162743,-47.257,15.211,-10.618
138,1436624162763,-47.257,15.211,-10.618
139,1436624162783,-47.257,15.211,-10.618
140,1436624162806,-47.257,15.211,-10.923
141,1436624162821,-47.257,15.211,-10.923
142,1436624162956,-47.257,15.211,-10.923
143,1436624162957,-47.257,15.211,-10.923
144,1436624162958,-47.257,15.211,-10.923
145,1436624162959,-47.257,15.211,-10.923
146,1436624162960,-47.257,15.211,-10.923
147,1436624162961,-47.257,15.211,-10.923
148,1436624162962,-47.257,15.211,-10.923
149,1436624162980,-47.257,15.211,-10.923
150,1436624163002,-47.257,15.211,-10.923
151,1436624163021,-47.257,15.211,-11.245
152,1436624163040,-47.257,15.211,-11.245
153,1436624163061,-47.257,15.211,-11.245
154,1436624163080,-46.945,15.211,-11.245
155,1436624163104,-46.945,15.211,-11.245
156,1436624163126,-46.945,15.211,-11.245
157,1436624163141,-46.945,15.211,-11.245
158,1436624163164,-46.945,15.211,-11.245
159,1436624163183,-46.945,15.211,-11.245
160,1436624163203,-46.945,15.211,-11.245
161,1436624163223,-46.945,15.211,-11.245
162,1436624163243,-46.945,15.211,-11.552
163,1436624163264,-46.945,15.211,-11.552
164,1436624163283,-46.945,15.211,-11.552
165,1436624163303,-46.945,15.211,-11.552
166,1436624163324,-46.945,15.211,-11.552
167,1436624163343,-46.945,15.211,-11.552
168,1436624163362,-46.945,15.211,-11.552
169,1436624163382,-46.945,15.211,-11.552
170,1436624163404,-46.945,15.211,-11.552
171,1436624163421,-46.945,15.211,-11.552
172,1436624163442,-46.945,15.211,-11.552
173,1436624163463,-46.945,15.211,-11.552
174,1436624163486,-46.945,15.211,-11.552
175,1436624163506,-46.945,15.211,-11.552
176,1436624163526,-46.945,15.211,-11.552
177,1436624163544,-46.945,15.211,-11.552
178,1436624163561,-46.945,15.211,-11.552
179,1436624163580,-46.945,15.211,-11.552
180,1436624163603,-46.945,15.211,-11.552
181,1436624163622,-46.945,15.211,-11.552
182,1436624163692,-46.945,15.211,-11.552
183,1436624163693,-46.945,15.211,-11.552
184,1436624163694,-46.945,15.211,-11.244
185,1436624163712,-46.945,15.211,-11.244
186,1436624163721,-46.945,15.211,-11.244
187,1436624163742,-46.945,15.211,-11.244
188,1436624163762,-46.945,15.211,-11.244
189,1436624163781,-46.945,15.211,-11.244
190,1436624163801,-46.945,15.211,-11.244
191,1436624163822,-46.945,15.211,-11.244
192,1436624163843,-46.945,15.211,-11.244
193,1436624163862,-46.945,15.211,-11.244
194,1436624163883,-46.945,15.211,-11.244
195,1436624163901,-46.945,15.211,-10.932
196,1436624163924,-46.945,15.211,-10.932
197,1436624163941,-46.945,15.211,-10.932
198,1436624163963,-46.945,15.211,-10.932
199,1436624163985,-46.945,15.211,-10.932
200,1436624164005,-46.945,15.211,-10.932
201,1436624164024,-46.945,15.211,-10.932
202,1436624164044,-46.945,15.211,-10.932
203,1436624164064,-46.945,15.211,-10.932
204,1436624164094,-46.945,15.211,-10.932
205,1436624164108,-46.945,15.211,-10.932
206,1436624164122,-46.945,15.211,-10.932
207,1436624164145,-46.945,15.211,-10.932
208,1436624164162,-46.945,15.211,-10.932
209,1436624164183,-46.945,15.211,-10.932
210,1436624164202,-46.945,15.211,-10.932
211,1436624164227,-46.945,15.211,-10.932
212,1436624164247,-46.945,15.211,-10.932
213,1436624164267,-46.945,15.211,-10.932
214,1436624164284,-46.945,15.211,-10.932
215,1436624164305,-46.945,15.211,-10.932
216,1436624164323,-46.945,15.211,-10.932
217,1436624164343,-46.945,15.211,-10.932
218,1436624164362,-46.945,15.211,-10.932
219,1436624164384,-46.945,15.211,-10.932
220,1436624164442,-46.945,15.211,-10.632
221,1436624164443,-46.945,15.211,-10.632
222,1436624164444,-46.945,15.211,-10.632
223,1436624164461,-46.945,15.211,-10.632
224,1436624164484,-46.945,15.211,-10.632
225,1436624164506,-46.945,15.211,-10.632
226,1436624164523,-46.945,15.211,-10.632
227,1436624164544,-46.945,15.211,-10.632
228,1436624164564,-46.945,15.211,-10.632
229,1436624164583,-46.945,15.211,-10.632
230,1436624164603,-46.945,15.211,-10.632
231,1436624164622,-46.945,15.211,-10.632
232,1436624164645,-46.945,15.211,-10.293
233,1436624164665,-46.945,15.211,-10.293
234,1436624164685,-46.945,15.211,-10.293
235,1436624164705,-46.945,15.211,-10.293
236,1436624164725,-46.945,15.211,-10.293
237,1436624164745,-46.945,15.211,-10.293
238,1436624164765,-46.945,15.211,-10.293
239,1436624164785,-46.945,15.211,-10.293
240,1436624164806,-46.945,15.211,-10.293
241,1436624164826,-46.945,15.211,-10.293
242,1436624164847,-46.945,15.211,-10.293
243,1436624164862,-46.945,15.211,-10.293
244,1436624164885,-46.945,15.211,-10.293
245,1436624164902,-46.945,15.211,-10.293
246,1436624164922,-46.945,15.211,-10.601
247,1436624164942,-46.945,15.211,-10.601
248,1436624164967,-46.945,15.211,-10.601
249,1436624164987,-46.945,15.211,-10.601
250,1436624165009,-46.945,15.211,-10.601
251,1436624165026,-46.945,15.211,-10.601
252,1436624165041,-46.945,15.211,-10.601
253,1436624165062,-46.945,15.211,-10.601
254,1436624165082,-46.945,15.211,-10.925
255,1436624165102,-46.945,15.211,-10.925
256,1436624165122,-46.945,15.211,-10.925
257,1436624165195,-46.945,15.211,-10.925
258,1436624165196,-46.945,15.211,-10.925
259,1436624165197,-46.945,15.211,-10.925
260,1436624165202,-46.945,15.211,-10.925
261,1436624165223,-46.945,15.211,-10.925
262,1436624165245,-46.945,15.211,-10.925
263,1436624165262,-46.945,15.211,-10.925
264,1436624165282,-46.945,15.211,-10.925
265,1436624165303,-46.945,15.211,-10.925
266,1436624165325,-46.945,15.211,-10.925
267,1436624165343,-46.945,15.211,-10.925
268,1436624165366,-46.945,15.211,-10.925
269,1436624165385,-46.945,15.211,-10.925
270,1436624165404,-46.945,15.211,-10.925
271,1436624165427,-46.945,15.211,-10.925
272,1436624165446,-46.945,15.211,-10.925
273,1436624165465,-46.945,15.211,-10.925
274,1436624165486,-46.945,15.211,-11.225
275,1436624165505,-46.945,15.211,-11.225
276,1436624165525,-46.945,15.211,-11.225
277,1436624165546,-46.945,15.211,-11.225
278,1436624165566,-46.945,15.211,-11.225
279,1436624165587,-46.945,15.211,-11.225
280,1436624165602,-46.945,15.211,-11.225
281,1436624165626,-46.945,15.211,-11.225
282,1436624165646,-46.945,15.211,-11.225
283,1436624165664,-46.945,15.211,-11.225
284,1436624165685,-46.945,15.211,-11.225
285,1436624165702,-46.945,15.211,-11.225
286,1436624165723,-46.945,15.211,-11.225
287,1436624165743,-46.945,15.211,-11.225
288,1436624165765,-46.945,15.211,-11.225
289,1436624165786,-46.945,15.211,-11.225
290,1436624165806,-46.945,15.211,-11.225
291,1436624165826,-46.945,15.211,-11.225
292,1436624165843,-46.945,15.211,-11.225
293,1436624165866,-46.945,15.211,-11.225
294,1436624165920,-46.945,15.211,-11.225
295,1436624165922,-46.945,15.211,-11.225
296,1436624165923,-46.945,15.211,-11.225
297,1436624165944,-46.945,15.211,-11.225
298,1436624165963,-46.945,15.211,-11.225
299,1436624165983,-46.945,15.211,-11.225
300,1436624166003,-46.945,15.211,-11.225
301,1436624166023,-46.945,15.211,-11.225
302,1436624166043,-46.945,15.211,-11.225
303,1436624166064,-46.945,15.211,-11.225
304,1436624166084,-46.945,15.211,-11.225
305,1436624166103,-46.945,15.211,-11.225
306,1436624166126,-46.945,15.211,-11.225
307,1436624166144,-46.945,15.211,-10.91
308,1436624166165,-46.945,15.211,-10.91
309,1436624166186,-46.945,15.211,-10.91
310,1436624166206,-46.945,15.211,-10.91
311,1436624166226,-46.945,15.211,-10.91
312,1436624166246,-46.945,15.211,-10.91
313,1436624166266,-46.945,15.211,-10.91
314,1436624166286,-46.945,15.211,-10.91
315,1436624166306,-46.945,15.211,-10.571
316,1436624166323,-46.945,15.211,-10.571
317,1436624166348,-46.945,15.211,-10.571
318,1436624166365,-46.945,15.211,-10.571
319,1436624166386,-46.945,15.211,-10.571
320,1436624166406,-46.945,15.211,-10.571
321,1436624166423,-46.945,15.211,-10.571
322,1436624166444,-46.945,15.211,-10.571
323,1436624166465,-47.253,15.211,-10.571
324,1436624166484,-47.253,15.211,-10.244
325,1436624166507,-47.253,15.211,-10.244
326,1436624166544,-47.253,15.211,-10.244
327,1436624166545,-47.253,15.211,-10.244
328,1436624166564,-47.253,15.211,-10.244
329,1436624166583,-47.253,15.211,-10.244
330,1436624166603,-47.253,15.211,-10.244
331,1436624166635,-47.253,15.211,-10.244
332,1436624166650,-47.253,15.211,-10.244
333,1436624166664,-47.253,15.211,-10.244
334,1436624166683,-47.253,15.211,-10.244
335,1436624166703,-47.253,15.211,-10.244
336,1436624166724,-47.253,15.211,-10.244
337,1436624166744,-47.253,15.211,-10.244
338,1436624166778,-47.253,15.211,-10.244
339,1436624166796,-47.253,15.211,-9.919
340,1436624166804,-47.253,15.211,-9.919
341,1436624166824,-47.253,15.211,-9.919
342,1436624166844,-47.253,15.211,-9.919
343,1436624166864,-47.253,15.211,-9.919
344,1436624166883,-47.253,15.211,-9.919
345,1436624166904,-47.253,15.211,-9.919
346,1436624166924,-47.253,15.211,-9.919
347,1436624166943,-47.253,15.211,-9.919
348,1436624166962,-47.253,15.211,-9.919
349,1436624166985,-47.253,15.211,-9.919
350,1436624167004,-47.253,15.211,-9.919
351,1436624167024,-47.253,15.211,-9.919
352,1436624167043,-47.253,15.211,-9.919
353,1436624167064,-47.253,15.211,-9.919
354,1436624167085,-47.253,15.211,-9.919
355,1436624167105,-47.253,15.211,-9.919
356,1436624167125,-47.253,15.211,-9.919
357,1436624167144,-47.253,15.211,-9.919
358,1436624167163,-47.253,15.211,-9.919
359,1436624167183,-47.253,15.211,-9.919
360,1436624167203,-47.253,15.211,-9.919
361,1436624167224,-47.253,15.211,-9.919
362,1436624167245,-47.253,15.211,-9.919
363,1436624167265,-47.253,15.211,-9.919
364,1436624167284,-47.253,15.211,-9.919
365,1436624167303,-47.253,15.211,-9.919
366,1436624167325,-47.253,15.211,-9.919
367,1436624167344,-47.253,15.211,-9.919
368,1436624167363,-47.253,15.211,-9.919
369,1436624167383,-47.253,15.211,-9.919
370,1436624167404,-47.253,15.211,-9.919
371,1436624167423,-47.253,15.211,-9.919
372,1436624167443,-47.253,15.211,-9.919
373,1436624167466,-47.253,15.211,-9.919
374,1436624167485,-47.253,15.211,-9.919
375,1436624167506,-47.253,15.211,-9.919
376,1436624167528,-47.253,15.211,-9.919
377,1436624167545,-47.253,15.211,-9.919
378,1436624167567,-47.253,15.211,-9.919
379,1436624167585,-47.253,15.211,-9.919
380,1436624167606,-47.253,15.211,-10.241
381,1436624167628,-47.253,15.211,-10.241
382,1436624167648,-47.253,15.211,-10.241
383,1436624167666,-47.253,15.211,-10.241
384,1436624167686,-47.253,15.211,-10.241
385,1436624167706,-47.253,15.211,-10.241
386,1436624167725,-47.253,15.211,-10.241
387,1436624167745,-47.253,15.211,-10.241
388,1436624167764,-47.253,15.211,-10.241
389,1436624167787,-47.253,15.211,-10.554
390,1436624167808,-47.253,15.211,-10.554
391,1436624167828,-47.253,15.211,-10.554
392,1436624167848,-47.253,15.211,-10.554
393,1436624167865,-47.253,15.211,-10.554
394,1436624167885,-47.253,15.211,-10.554
395,1436624167906,-47.253,15.211,-10.554
396,1436624167924,-47.253,15.211,-10.554
397,1436624168094,-47.253,15.211,-10.554
398,1436624168095,-47.253,15.211,-10.554
399,1436624168096,-47.253,15.211,-10.554
400,1436624168097,-47.253,15.211,-10.554
401,1436624168098,-47.253,15.211,-10.554
402,1436624168099,-47.253,15.211,-10.554
403,1436624168100,-47.253,15.211,-10.554
404,1436624168101,-47.253,15.211,-10.554
405,1436624168151,-47.253,15.211,-10.554
406,1436624168152,-47.253,15.211,-10.554
407,1436624168153,-47.253,15.211,-10.554
408,1436624168207,-47.253,15.211,-10.554
409,1436624168208,-47.253,15.211,-10.554
410,1436624168209,-47.253,15.211,-10.554
411,1436624168225,-47.253,15.211,-10.554
412,1436624168246,-47.253,15.211,-10.554
413,1436624168267,-47.253,15.211,-10.554
414,1436624168286,-47.253,15.211,-10.554
415,1436624168305,-47.253,15.211,-10.554
416,1436624168327,-47.253,15.211,-10.554
417,1436624168346,-47.253,15.211,-10.554
418,1436624168366,-47.253,15.211,-10.554
419,1436624168386,-47.253,15.211,-10.554
420,1436624168406,-47.253,15.211,-10.554
421,1436624168426,-47.253,15.211,-10.554
422,1436624168446,-47.253,15.211,-10.554
423,1436624168465,-47.253,15.211,-10.554
424,1436624168493,-47.253,15.211,-10.554
425,1436624168506,-47.253,15.211,-10.554
426,1436624168529,-47.253,15.211,-10.554
427,1436624168546,-47.253,15.211,-10.554
428,1436624168568,-47.253,15.211,-10.554
429,1436624168592,-47.253,15.211,-10.554
430,1436624168610,-47.253,15.211,-10.554
431,1436624168630,-47.253,15.211,-10.554
432,1436624168648,-47.253,15.211,-10.554
433,1436624168666,-47.253,15.211,-10.554
434,1436624168686,-47.253,15.211,-10.554
435,1436624168705,-47.253,15.211,-10.554
436,1436624168727,-47.253,15.211,-10.554
437,1436624168756,-47.253,15.211,-10.554
438,1436624168816,-47.253,15.211,-10.554
439,1436624168817,-47.253,15.211,-10.554
440,1436624168827,-47.253,15.211,-10.554
441,1436624168828,-47.253,15.211,-10.554
442,1436624168846,-47.253,15.211,-10.554
443,1436624168866,-47.253,15.211,-10.554
444,1436624168885,-47.253,15.211,-10.554
445,1436624168905,-47.253,15.211,-10.554
446,1436624168926,-47.253,15.211,-10.554
447,1436624168947,-47.253,15.211,-10.554
448,1436624168966,-47.253,15.211,-10.554
449,1436624168987,-47.253,15.211,-10.554
450,1436624169007,-47.253,15.211,-10.554
451,1436624169027,-47.253,15.211,-10.554
452,1436624169049,-47.253,15.211,-10.554
453,1436624169072,-47.253,15.211,-10.554
454,1436624169086,-47.253,15.211,-10.554
455,1436624169108,-47.253,15.211,-10.554
456,1436624169125,-47.253,15.211,-10.554
457,1436624169146,-47.253,15.211,-10.554
458,1436624169169,-47.253,15.211,-10.554
459,1436624169186,-47.253,15.211,-10.554
460,1436624169210,-47.253,15.211,-10.554
461,1436624169226,-47.253,15.211,-10.554
462,1436624169247,-47.253,15.211,-10.203
463,1436624169269,-47.253,15.211,-10.203
464,1436624169288,-47.253,15.211,-10.203
465,1436624169307,-47.253,15.211,-10.203
466,1436624169328,-47.253,15.211,-10.203
467,1436624169348,-47.253,15.211,-9.877
468,1436624169369,-47.253,15.211,-9.877
469,1436624169387,-47.253,15.211,-9.877
470,1436624169409,-47.253,15.211,-9.877
471,1436624169428,-47.253,15.211,-9.877
472,1436624169448,-47.253,15.211,-9.877
473,1436624169477,-47.253,15.211,-9.877
474,1436624169539,-47.253,15.211,-9.877
475,1436624169540,-47.253,15.211,-9.877
476,1436624169541,-47.253,15.211,-9.877
477,1436624169578,-47.253,15.211,-9.877
478,1436624169579,-47.253,15.211,-9.877
479,1436624169591,-47.253,15.211,-9.877
480,1436624169609,-47.253,15.211,-9.877
481,1436624169626,-47.253,15.211,-9.877
482,1436624169647,-47.558,15.211,-9.877
483,1436624169666,-47.558,15.211,-9.877
484,1436624169688,-47.558,15.211,-9.877
485,1436624169706,-47.558,15.211,-9.877
486,1436624169728,-47.558,15.211,-9.877
487,1436624169748,-47.558,15.211,-9.877
488,1436624169770,-47.558,15.211,-9.877
489,1436624169788,-47.558,15.211,-9.877
490,1436624169810,-47.558,15.211,-9.877
491,1436624169829,-47.558,15.211,-9.877
492,1436624169849,-47.558,15.211,-9.877
