id,attr_time,attr_db
1,1436609875244,58.1589240261601
2,1436609875728,56.3863406421283
3,1436609876213,49.9948197391337
4,1436609876712,50.0307221827028
5,1436609877186,49.5473042192112
6,1436609877672,50.7940494421108
7,1436609878156,53.2397706565685
8,1436609878632,55.7508593212117
9,1436609879078,64.6480291028577
10,1436609879487,69.784287236842
11,1436609879942,70.5191859302519
12,1436609880382,67.3698251937108
13,1436609880870,68.6737567567606
14,1436609881421,69.1237343792118
15,1436609881854,71.2868958936878
16,1436609882289,72.0468469388471
17,1436609882727,69.8629156155586
18,1436609883194,68.5836644243781
19,1436609883686,73.1066032202599
20,1436609884162,68.7665496993432
21,1436609884682,72.0845974033019
22,1436609885194,69.2359108731478
23,1436609885704,65.4042136664852
24,1436609886071,71.8848931027285
25,1436609886464,67.5847040877892
26,1436609886947,74.3327143046687
27,1436609887448,68.12308094379
28,1436609887925,70.8321789270938
29,1436609888430,65.5535670884061
30,1436609888848,72.1289293746892
31,1436609889322,71.1942491414359
32,1436609889805,66.2915880936389
33,1436609890302,70.9541001186229
34,1436609890807,71.6390534634189
35,1436609891296,70.6457367210183
36,1436609891787,69.156196830837
37,1436609892286,72.4877061905402
38,1436609892770,69.5361949300041
39,1436609893271,70.5169385783106
40,1436609893724,71.2671937772543
41,1436609894148,68.9859513524454
42,1436609894613,67.8965953745203
43,1436609895078,69.7852904173966
44,1436609895547,72.3487986674711
45,1436609896047,72.3583792264906
46,1436609896522,70.9012996976034
47,1436609896984,73.3945178414135
48,1436609897448,73.5566350037002
49,1436609897911,72.777609536296
50,1436609898336,68.8924213938142
51,1436609898764,67.9005007119014
52,1436609899216,66.6370443495906
53,1436609899703,71.0511051361971
54,1436609900264,71.9754036363531
55,1436609900757,71.7273337191096
56,1436609901260,72.5620220085141
57,1436609901807,68.8674830107108
58,1436609902257,72.1013062522228
59,1436609902705,70.991918697671
60,1436609903139,66.026349049553
61,1436609903538,70.8687965063707
62,1436609904011,69.4960814441828
63,1436609904493,69.5488541182396
64,1436609904928,71.7700235207362
65,1436609905402,68.7218838989245
66,1436609905886,68.2267276210307
67,1436609906371,62.6515277872226
68,1436609906851,70.9837234257684
69,1436609907235,71.9947559883939
70,1436609907694,69.7639624723321
71,1436609908165,66.9336168317146
72,1436609908676,64.5288244503505
73,1436609909186,72.5283625264583
74,1436609909674,69.6590325513346
75,1436609910144,69.2856439047736
76,1436609910618,72.8904058412283
77,1436609911114,70.4910992315266
78,1436609911595,70.7691762936122
79,1436609912086,67.627020302252
80,1436609912574,70.3205558216809
81,1436609913061,70.607817825337
82,1436609913522,67.9939398753464
83,1436609913907,70.354566323475
84,1436609914309,67.9685752995193
85,1436609914744,64.4582119036516
86,1436609915239,73.00924985062
87,1436609915747,68.4929749715412
88,1436609916251,69.7951636701806
89,1436609916744,65.8586729512562
90,1436609917183,70.8754535290054
91,1436609917662,71.629497465336
92,1436609918135,66.2554628081197
93,1436609918624,73.8448914881934
94,1436609919124,72.4254790308605
95,1436609919596,69.8612599443935
96,1436609920110,65.828007116551
97,1436609920573,71.7797917236913
98,1436609921061,63.4623827965966
99,1436609921556,70.3433298809044
100,1436609922059,72.0467124880995
101,1436609922437,68.5922437624814
102,1436609922869,70.478806412837
103,1436609923338,65.9216069296916
104,1436609923914,69.0623999346173
105,1436609924356,72.4514814286632
106,1436609924791,64.2000720806823
107,1436609925254,69.6772529514894
108,1436609925758,68.6013531077703
109,1436609926231,70.4367304079982
110,1436609926674,71.5856946442221
111,1436609927155,59.727843295359
112,1436609927687,70.8088206873049
113,1436609928027,67.8335333353839
114,1436609928374,60.8393944148814
115,1436609928733,67.8052692404317
116,1436609929113,67.5670179128462
117,1436609929564,66.0996718029962
118,1436609930056,71.0713427124913
119,1436609930547,69.7386499924359
120,1436609931052,63.6441205906297
121,1436609931434,70.1480624420748
122,1436609931882,66.9352024893141
123,1436609932374,72.6007507752214
124,1436609932852,64.4686419441565
125,1436609933266,72.0914971946289
126,1436609933656,71.3602867959658
127,1436609934130,68.371271846885
128,1436609934580,69.4506885723519
129,1436609935034,64.4505637514576
130,1436609935485,68.4537728190779
131,1436609936003,70.9585750659853
132,1436609936466,67.8023667777897
133,1436609936909,67.1829139821887
134,1436609937376,62.5065726980136
135,1436609937873,69.1883803157787
136,1436609938302,72.5329173951044
137,1436609938794,70.1870920823602
138,1436609939265,67.6170501629886
139,1436609939715,61.6884263563872
140,1436609940197,68.9315140980223
141,1436609940670,71.0068364608584
142,1436609941152,65.4162565492529
143,1436609941631,67.1457879640114
144,1436609942087,68.1559280022385
145,1436609942466,66.2651176369953
146,1436609942920,72.6934994764783
147,1436609943392,63.6947381757105
148,1436609943964,67.1938009244756
149,1436609944440,65.739474249202
150,1436609944900,69.8279590834673
151,1436609945274,71.2728248048668
152,1436609945691,62.0733855818086
153,1436609946143,71.0816474414568
154,1436609946639,72.9385124799281
155,1436609947083,68.0897930008046
156,1436609947519,65.258966366323
157,1436609948008,65.8986541398598
158,1436609948478,68.6844224709837
159,1436609949048,68.052198913704
160,1436609949506,67.4265344197857
161,1436609950003,69.9946718870258
162,1436609950502,67.268536850085
163,1436609950977,69.9296055197899
164,1436609951455,70.4244205240235
165,1436609951927,67.7343804506685
166,1436609952416,72.7041396750752
167,1436609952907,61.4406601626303
168,1436609953415,69.6297146828851
169,1436609953946,60.6218024047348
170,1436609954369,74.6583786381074
171,1436609954854,70.8025614860481
172,1436609955361,61.7934523087373
173,1436609955767,65.3871981169296
174,1436609956183,64.2302905735361
175,1436609956640,64.6382359446132
176,1436609957115,71.8172773196241
177,1436609957584,65.8658138419091
178,1436609958077,65.2703917918186
179,1436609958503,62.852876201709
180,1436609958904,65.9617245003405
181,1436609959344,72.4884930661843
182,1436609959838,66.1387605645132
183,1436609960395,70.1793737273352
184,1436609960872,65.1216049258233
185,1436609961281,68.1236030015442
186,1436609961732,71.6621200757162
187,1436609962203,71.7486540824187
188,1436609962649,68.5575802374252
189,1436609963974,71.3564858818684
190,1436609964378,65.1641564599747
191,1436609964834,72.4273319725263
192,1436609965316,72.521181372971
193,1436609965830,64.3799412645922
194,1436609966301,71.8788038798588
195,1436609966739,66.9385391071026
196,1436609967166,71.0883437995024
197,1436609967635,70.7976985996718
198,1436609968103,66.2573284971781
199,1436609968545,67.8069264853155
200,1436609969025,65.3266181280924
201,1436609969503,73.1212170152661
202,1436609969975,66.1912371235548
203,1436609970451,70.1828123309601
204,1436609970906,70.3024179471094
205,1436609971326,68.7572698420458
206,1436609971763,71.7406458044839
207,1436609972228,70.7425245660671
208,1436609972721,70.2554118519927
209,1436609974618,69.0180354847636
210,1436609975022,68.5474775795095
211,1436609975524,72.2836651800577
212,1436609976007,70.0902945469206
213,1436609976512,67.3070852414256
214,1436609976970,69.8154072744244
215,1436609977370,73.3389939689131
216,1436609977809,70.9778428676156
217,1436609978268,65.9654788081506
218,1436609978832,65.7417823912735
219,1436609979328,68.8803056118105
220,1436609979812,73.0103316052906
221,1436609980258,69.7746244347246
222,1436609980696,67.9587581955504
223,1436609981184,71.6426329058891
224,1436609981672,68.8305657529504
225,1436609982147,71.523447278025
226,1436609982617,68.7680594682073
227,1436609983048,68.9477519366053
228,1436609983538,71.0574484161285
229,1436609984008,67.8127882231418
230,1436609984487,68.59032507441
231,1436609984977,56.896822826516
232,1436609985403,71.8739653391121
233,1436609985857,70.1190877399158
234,1436609986365,66.8890358011618
235,1436609986850,71.7207905202752
236,1436609987321,71.2567096045358
237,1436609987777,70.2618071435988
238,1436609989390,61.4749043433988
239,1436609989784,69.4239179286848
240,1436609990240,70.1350525649808
241,1436609990736,70.1911096035765
242,1436609991232,66.9067805836891
243,1436609991743,70.175723758468
244,1436609992238,70.9841797651192
245,1436609992697,69.378589534949
246,1436609993184,71.7384023822844
247,1436609993678,70.2883171865455
248,1436609994209,68.8548388690579
249,1436609994707,72.1572107728426
250,1436609995216,68.7463973798941
251,1436609995706,69.8250842902721
252,1436609996194,66.6905431003414
253,1436609996670,70.7036658815832
254,1436609997140,72.973831321813
255,1436609998646,71.2708808011974
256,1436609999070,71.7987242873624
257,1436609999549,66.1536374857318
258,1436610000035,67.0811378177521
259,1436610000533,72.7108209523561
260,1436610001038,65.0696319170775
261,1436610001506,66.8804991131723
262,1436610001952,65.3972404011826
263,1436610002317,65.2694068502977
264,1436610002652,72.8707294093008
265,1436610003109,69.6981983343189
266,1436610003583,70.8171847755602
267,1436610004057,72.9813292307397
268,1436610004564,64.6495566836932
269,1436610005064,71.2473790895564
270,1436610005577,68.0514187661067
271,1436610006054,68.9615801395676
272,1436610006541,68.1548903473636
273,1436610007029,69.5774747816379
274,1436610007530,71.6265397431245
275,1436610008088,65.8505638072882
276,1436610008589,71.9047865472005
277,1436610009007,70.8190103107082
278,1436610009474,73.2334570773333
279,1436610009953,64.7789994289007
280,1436610010444,68.6847236388954
281,1436610010952,72.2390705810435
282,1436610011423,63.2003105148572
283,1436610011945,71.9393033170411
284,1436610012332,61.9152153046353
285,1436610012726,71.8265912778797
286,1436610013192,73.131789944846
287,1436610013598,71.7357083340745
288,1436610014013,70.0572768294549
289,1436610014442,66.7330656178318
290,1436610014907,69.8087242567386
291,1436610015406,71.6382696401817
292,1436610015915,71.4617375995782
293,1436610016391,69.3712776537214
294,1436610016887,65.2778539268636
295,1436610017362,73.0130232722024
296,1436610017784,70.38500055159
297,1436610018228,73.624303137593
298,1436610018665,71.6471454578632
299,1436610019100,69.0335926381301
300,1436610019572,72.5828742446482
301,1436610020111,65.6701889714425
302,1436610020635,73.5916448898666
303,1436610021109,69.7043068312814
304,1436610021573,70.2502043714212
305,1436610021965,64.7024283781916
306,1436610022379,67.1851229396868
307,1436610022814,72.2643071825066
308,1436610023261,71.1822349867182
309,1436610023738,69.8414173382299
310,1436610024236,68.6369242887779
311,1436610024739,65.5615722162201
312,1436610025226,70.7540262316772
313,1436610025708,69.2869845771745
314,1436610026198,69.7030272604795
315,1436610026700,71.9835828406204
316,1436610027208,69.9737244246898
317,1436610027690,70.6832358604642
318,1436610028189,70.7382493682033
319,1436610028702,71.2517547827224
320,1436610029132,67.4711668706249
321,1436610029587,73.0942485914752
322,1436610030064,66.9164091838639
323,1436610030552,69.503614375363
324,1436610031038,72.5969450346215
325,1436610031504,67.7461718052147
326,1436610031897,65.9964692588496
327,1436610032284,69.8184774351215
328,1436610032740,67.3254338577528
329,1436610033219,70.2032034054198
330,1436610033764,70.8359375734033
331,1436610034275,70.4824522376323
332,1436610034782,68.4020105441248
333,1436610035276,69.9335131536482
334,1436610035765,66.0275699335038
335,1436610036230,67.5556033844272
336,1436610036731,71.6843585919162
337,1436610037211,65.4283120137301
338,1436610037700,73.0009284136476
339,1436610038189,72.9954427912804
340,1436610038687,71.3611898890379
341,1436610039157,68.690337572418
342,1436610039593,67.349933480119
343,1436610040011,65.0879280127185
344,1436610040508,65.9737190955522
345,1436610040961,71.4570153114926
346,1436610041358,71.0295144514931
347,1436610041794,72.061789633026
348,1436610042256,71.870468491677
349,1436610042712,69.8086601444752
350,1436610043146,62.9994820880558
351,1436610043590,67.4530668074337
352,1436610044051,67.9716096210339
353,1436610044518,73.494811583869
354,1436610044969,69.888425283686
355,1436610045395,65.7223134829844
356,1436610045875,65.2081317832929
357,1436610046279,67.1261313499972
358,1436610046713,70.2115575992845
359,1436610047183,70.6061712662793
360,1436610047691,71.9240549040161
361,1436610048186,63.9672050116094
362,1436610048669,61.7267448692044
363,1436610049140,72.1257096948317
364,1436610049642,68.6476816112519
365,1436610050070,71.4910251674923
366,1436610050470,71.5091817507887
367,1436610050892,65.5313502616328
368,1436610051354,72.6471071581244
369,1436610051850,71.2316603906587
370,1436610052324,67.7039173368382
371,1436610052836,71.9862167150065
372,1436610053312,68.0008359170115
373,1436610053891,71.8257167235797
374,1436610054317,59.9807360527652
375,1436610054748,69.9959143643822
376,1436610055247,72.5374782652381
377,1436610055747,68.0808486762778
378,1436610056246,74.0807658797428
379,1436610056748,68.474169515577
380,1436610057247,73.2998067327675
381,1436610057726,65.1486329217274
382,1436610058117,72.3485781174267
383,1436610058589,70.2426442425019
384,1436610059078,68.8184388469699
385,1436610059559,72.7290924211068
386,1436610060041,67.3610009369606
387,1436610060556,65.0220593508002
388,1436610060963,66.6465854935677
389,1436610061364,71.8040197396508
390,1436610061812,70.9944588310014
391,1436610062317,62.8819512466115
392,1436610062821,71.5071879893581
393,1436610063162,56.9324533762966
394,1436610063578,68.6085795176196
395,1436610063994,71.4480184887963
396,1436610064450,71.9291271174496
397,1436610064945,69.3319795532543
398,1436610065442,65.5755316174439
399,1436610065926,71.4041065912461
400,1436610066398,68.2529130991236
401,1436610066878,62.4245591225575
402,1436610067375,70.4215815565055
403,1436610067873,67.4479355453885
404,1436610068358,65.6052635112698
405,1436610068876,64.7692748868641
406,1436610069361,71.6760642661229
407,1436610069868,65.2292703845368
408,1436610070363,67.1350389149822
409,1436610070832,72.2754513902138
410,1436610071271,68.8753381146501
411,1436610071675,71.2602900352503
412,1436610072108,66.0976084274631
413,1436610072581,65.8479695380906
414,1436610073079,70.3778856713519
415,1436610073643,68.4474948954604
416,1436610074062,63.0392193009128
417,1436610074494,69.8176465898875
418,1436610074975,69.9724697523768
419,1436610075456,71.6910790056201
420,1436610075947,61.5929793363561
421,1436610076421,72.3179789374889
422,1436610076916,65.7885144024382
423,1436610077379,69.7366580929334
424,1436610077839,66.7661662296434
425,1436610078337,70.7306439463369
426,1436610078839,70.59725112629
427,1436610079317,60.4744437486316
428,1436610079799,65.39806416634
429,1436610080323,66.1565441561416
430,1436610080817,69.8783373149935
431,1436610081303,66.3543519262384
432,1436610081761,71.1735986804485
433,1436610082149,71.6522047232004
434,1436610082566,65.1740270305594
435,1436610083001,71.678524252817
436,1436610083497,60.5482384746278
437,1436610083922,65.9493314054882
438,1436610084377,71.4170704821878
439,1436610084852,68.4738456315746
440,1436610085316,65.1999652273857
441,1436610085694,69.7263010531172
442,1436610086162,68.4664637281539
443,1436610086665,71.9077381060698
444,1436610087141,66.035234457384
445,1436610087627,65.1644543428776
446,1436610088111,67.3547254830117
447,1436610088594,72.7458551843911
448,1436610089100,61.7196180243693
449,1436610089570,63.8325721678089
450,1436610090051,71.0052975385485
451,1436610090533,68.8348364883296
452,1436610091007,65.7067358245575
453,1436610091510,67.5304950218
454,1436610091992,70.7329463550181
455,1436610092500,65.9405879556997
456,1436610092847,62.9339707838643
457,1436610093291,65.8446474548386
458,1436610093841,68.4378709450461
459,1436610094324,71.1936488418127
460,1436610094834,61.302702665509
461,1436610095334,69.646063432818
462,1436610095835,71.0939192421629
463,1436610096222,65.2504904540991
464,1436610096644,70.5682056798307
465,1436610097086,63.4132382142865
466,1436610097576,71.4127545831653
467,1436610098064,72.3086322415904
468,1436610098546,63.0516755404181
469,1436610099058,67.324707754459
470,1436610099538,68.3882875041066
471,1436610100026,71.9022073617416
472,1436610100511,63.1842083013508
473,1436610101016,68.9066307172681
474,1436610101492,71.498039780224
475,1436610102001,61.9568446646052
476,1436610102496,70.6373816288699
477,1436610102963,71.0136813474409
478,1436610103328,70.61520976185
479,1436610103749,73.1572448301195
480,1436610104211,65.9708008615702
481,1436610104665,69.3791754675103
482,1436610105170,65.8979900369503
483,1436610105655,70.9765414667951
484,1436610106176,69.0198708252656
485,1436610106647,68.5273195618694
486,1436610107125,72.2225775766869
487,1436610107510,70.5170157301855
488,1436610107962,70.7272839893049
489,1436610108454,71.7799701025779
490,1436610108980,66.0400046732163
491,1436610109469,71.9527223451623
492,1436610109956,65.4192657481686
493,1436610110431,68.0122569828788
494,1436610110917,63.8280182555095
495,1436610111432,71.5597250909933
496,1436610111923,66.9410840866982
497,1436610112425,68.7918952060971
498,1436610112911,72.0956555189699
499,1436610113396,66.3947285903493
500,1436610113943,71.1147303990389
501,1436610114341,71.5647259218145
502,1436610114724,71.1582246756231
503,1436610115158,72.6155705951634
504,1436610115660,61.961787018673
505,1436610116140,69.6637980684082
506,1436610116610,69.2338367265882
507,1436610117046,72.3997757462449
508,1436610117579,69.667241755054
509,1436610118061,69.8238169820241
510,1436610118458,70.4428532603393
511,1436610118924,64.7258765200003
512,1436610119414,68.2180834978485
513,1436610119893,69.8789483350028
514,1436610120386,71.3118670589366
515,1436610120859,71.4602840059316
516,1436610121282,66.3931242862112
517,1436610121722,67.5315725776096
518,1436610122202,68.4368943098576
519,1436610122684,72.0825903008507
520,1436610123182,68.3502358226991
521,1436610123637,70.5737464067613
522,1436610123985,63.4446586869676
523,1436610124388,67.7317027085098
524,1436610124840,70.986419709996
525,1436610125326,71.716943833109
526,1436610125811,61.039557432882
527,1436610126294,67.6216329485556
528,1436610126796,68.2281384781969
529,1436610127296,69.7871122087886
530,1436610127781,71.0708983222193
531,1436610128274,69.236393550274
532,1436610128772,70.852713308163
533,1436610129275,61.8725584029478
534,1436610129738,73.4617787702417
535,1436610130180,64.153174867412
536,1436610130651,73.3321777216177
537,1436610131140,64.8530491808611
538,1436610131649,70.2190301696409
539,1436610132138,71.6001336463208
540,1436610132620,60.9109104038844
541,1436610133122,69.9789912265318
542,1436610133632,64.1133651800787
543,1436610134118,70.0593311876625
544,1436610134552,67.9322272848121
545,1436610134968,63.0966648142288
546,1436610135402,72.2865413836778
547,1436610135897,67.3049403597884
548,1436610136389,70.6095625128627
549,1436610136851,63.4920440344095
550,1436610137351,67.1185757856267
551,1436610137907,71.8075790038555
552,1436610138303,62.5184234499029
553,1436610138744,65.5904759343915
554,1436610139214,66.5624198735964
555,1436610139697,72.2607069730137
556,1436610140180,70.5412685189374
557,1436610140675,64.8890682538863
558,1436610141167,71.2571636588732
559,1436610141680,69.6753621399367
560,1436610142181,70.0047274780166
561,1436610142677,70.1747568957823
562,1436610143334,71.2859374012761
563,1436610143849,67.7485350398189
564,1436610144244,69.1760243956893
565,1436610144703,71.5294847493114
566,1436610145198,63.9129565062345
567,1436610145630,65.4616153783394
568,1436610146081,58.7410441951915
569,1436610146550,69.6255903846273
570,1436610146989,72.3437049811393
571,1436610147454,69.099341742086
572,1436610147881,72.2263266057654
573,1436610148346,65.9776438547135
574,1436610148825,66.6894851031294
575,1436610149308,71.412838057035
