id,attr_time,attr_db
1,1436609875421,55.1501430236393
2,1436609876024,54.209694606629
3,1436609876701,50.7937521428453
4,1436609877526,52.983049647918
5,1436609878254,54.556003453968
6,1436609878990,57.0266625401935
7,1436609879669,58.2956272622519
8,1436609880303,58.7479964301162
9,1436609881023,59.8532501393818
10,1436609881734,59.4378551051121
11,1436609882483,60.430177866004
12,1436609883197,63.3917287610465
13,1436609883892,63.6697006337346
14,1436609884567,65.9202110645675
15,1436609885298,61.9010744218932
16,1436609886048,60.5172499076592
17,1436609886791,61.8873245212817
18,1436609887581,60.1353456848257
19,1436609888314,60.2877004712076
20,1436609889053,57.070021656545
21,1436609889792,57.8277569335356
22,1436609890465,52.4106970556208
23,1436609891097,49.3961620764272
24,1436609891818,57.1607015262822
25,1436609892554,58.4438224767918
26,1436609893250,54.1121457811972
27,1436609893959,57.0738720434032
28,1436609894609,58.311869661582
29,1436609895332,61.8424951437902
30,1436609896054,68.5652691062149
31,1436609896680,71.5151224043277
32,1436609897456,70.8143873847075
33,1436609898193,66.1305430799844
34,1436609898794,61.5391057195462
35,1436609899361,70.6662630656714
36,1436609899943,72.5192326572864
37,1436609900625,70.5768089533544
38,1436609901238,68.4369743401743
39,1436609901898,57.7451350003553
40,1436609902574,67.4065313547311
41,1436609903315,55.3136837572648
42,1436609904114,55.4622307207923
43,1436609904848,57.1477964335946
44,1436609905604,49.366100424193
45,1436609906326,51.8437683656537
46,1436609907073,46.0344964498929
47,1436609907848,50.3060104550185
48,1436609908600,46.3510257142715
49,1436609909335,57.0086074867626
50,1436609910074,55.4756745398025
51,1436609910827,41.2401369215296
52,1436609911485,45.7207073184235
53,1436609912343,38.263272724888
54,1436609913067,38.9196862946932
55,1436609913784,51.3659229249109
56,1436609914510,54.0740620298168
57,1436609915194,47.6268694280101
58,1436609917268,42.2300715521953
59,1436609918008,50.4287095477518
60,1436609918724,38.2242320950554
61,1436609919461,48.0836345336515
62,1436609920184,52.3479932954311
63,1436609920884,56.2793033037696
64,1436609921496,33.596179253419
65,1436609922309,46.165774807817
66,1436609922969,44.2914696875031
67,1436609923664,40.8447146754564
68,1436609924414,42.2468324856009
69,1436609925183,49.953781503467
70,1436609925943,46.9393481076942
71,1436609926692,51.2592580977702
72,1436609927262,40.9459207112031
73,1436609928868,47.8533143610734
74,1436609929534,40.0073087248281
75,1436609930263,40.8361084905579
76,1436609930997,43.331255420546
77,1436609931677,42.9893705149695
78,1436609932281,39.8478173013111
79,1436609932983,47.317433340455
80,1436609933744,49.4472573407754
81,1436609934462,42.7172668677162
82,1436609935183,53.7517505893023
83,1436609935945,55.3330413656507
84,1436609936713,59.2756592011422
85,1436609937401,45.2153552988452
86,1436609938139,48.916474198253
87,1436609938886,48.0097187694228
88,1436609939623,43.0346785016099
89,1436609940397,50.536142606135
90,1436609941044,43.625253290169
91,1436609942350,54.4158127308719
92,1436609942964,56.2520779066611
93,1436609943678,44.0424278808223
94,1436609944441,55.0341204558005
95,1436609945155,43.9072353868441
96,1436609945876,44.0783387621072
97,1436609946647,63.5775824057286
98,1436609947400,50.232083129572
99,1436609948060,55.999247835785
100,1436609948792,58.1396553319837
101,1436609949539,62.1692360483189
102,1436609950273,64.1792445036512
103,1436609951001,65.2795397508743
104,1436609952815,51.5796994944066
105,1436609953429,42.9144077849492
106,1436609954093,55.1164171940967
107,1436609954820,58.7087290550184
108,1436609955585,52.037107571335
109,1436609956272,54.1034657161547
110,1436609956859,53.0035215000874
111,1436609957544,50.6027798165613
112,1436609958275,45.6260760873575
113,1436609958948,36.1201275732928
114,1436609959625,41.4772684139133
115,1436609960356,42.8522494821804
116,1436609961082,58.0198799753528
117,1436609961874,49.0222629223754
118,1436609962613,53.4266984483728
119,1436609963347,36.3657311610035
120,1436609964031,52.0034283759689
121,1436609964675,50.9798072708916
122,1436609965402,47.7836253970819
123,1436609966115,43.4889988107233
124,1436609966840,47.9808955804922
125,1436609967594,48.8010855492527
126,1436609968305,44.7554994510936
127,1436609969021,47.6518125699609
128,1436609969730,50.6107106741552
129,1436609970473,41.7811152051597
130,1436609971201,43.5495896738487
131,1436609971905,45.075254681602
132,1436609972594,47.7755734961417
133,1436609973330,54.9562638504908
134,1436609974065,58.8411395997298
135,1436609974756,57.9129257860119
136,1436609975516,59.4387744534144
137,1436609976228,58.3269145539995
138,1436609976919,64.0362734070298
139,1436609977594,59.1994847998845
140,1436609978320,62.3173463104194
141,1436609979049,68.4205971385357
142,1436609979817,73.3130285921861
143,1436609980510,65.3249136853107
144,1436609981246,61.3698107552151
145,1436609981978,65.950386261316
146,1436609982688,54.0300772592299
147,1436609983428,58.5235555080897
148,1436609984161,46.3427123472797
149,1436609984917,54.2756889222127
150,1436609985606,50.240148608254
151,1436609986286,49.2534927201301
152,1436609987085,47.0790563990842
153,1436609987824,51.0297329822541
154,1436609988529,51.5099145498931
155,1436609989250,58.9125509205261
156,1436609990011,63.8098712043499
157,1436609990708,42.6924594987239
158,1436609991404,49.8316374777071
159,1436609992078,60.0836771081132
160,1436609992814,65.7950295904038
161,1436609993557,62.5897464994039
162,1436609994292,64.9270905028077
163,1436609995030,61.7896944174877
164,1436609995753,61.1982383203362
165,1436609996407,49.9881269203341
166,1436609997124,60.2189003244838
167,1436609997841,52.0004048039123
168,1436609998626,49.708135580786
169,1436609999350,47.6699039580368
170,1436610000079,51.6641591417611
171,1436610000833,51.3121535181828
172,1436610001577,51.986144722334
173,1436610002311,50.7023549005736
174,1436610003045,42.6759296885651
175,1436610003776,46.816473563853
176,1436610004509,49.5007094440547
177,1436610005228,46.7318609914764
178,1436610005954,45.5175641043186
179,1436610006697,58.8801024945181
180,1436610007332,55.3863901212088
181,1436610008030,54.7092427956846
182,1436610008755,59.0200953333748
183,1436610009511,55.9091029896833
184,1436610010225,62.0954341989047
185,1436610010918,48.314816821108
186,1436610011631,52.9897543398351
187,1436610012365,59.4587780871409
188,1436610013091,63.6785438206949
189,1436610013815,59.9122475793341
190,1436610014554,57.4534166016022
191,1436610015271,54.8652121822979
192,1436610016010,60.1004488932288
193,1436610016732,64.12300858807
194,1436610017392,67.4641497119628
195,1436610018119,64.1795697857059
196,1436610018851,57.4860184489786
197,1436610019579,53.559969389442
198,1436610020223,47.8995173249633
199,1436610020901,46.7132339318119
200,1436610021580,42.0841500434721
201,1436610022296,43.0992242141413
202,1436610023031,44.7684300868718
203,1436610023762,40.3551861920173
204,1436610024504,42.8541824745744
205,1436610025233,47.2304441717384
206,1436610025974,39.3161280605964
207,1436610026700,58.3935905997437
208,1436610027508,44.6994548216512
209,1436610028147,61.1649968343679
210,1436610028891,58.2772042402918
211,1436610029639,62.3081466624926
212,1436610030374,40.0981907102782
213,1436610031118,50.856476391132
214,1436610031839,44.5142856446291
215,1436610032734,60.6473991053318
216,1436610033452,49.3046079160121
217,1436610034188,62.889811264694
218,1436610034933,64.1517644193619
219,1436610035671,61.4103373242102
220,1436610036405,56.6463631480707
221,1436610037197,61.8152820150117
222,1436610037971,68.4435360390998
223,1436610038642,68.4951000996366
224,1436610039313,64.7423303677382
225,1436610040043,62.3464384571841
226,1436610040720,67.7430135233776
227,1436610041441,61.1360650059418
228,1436610042163,55.4937103326891
229,1436610042986,57.9565137676121
230,1436610043697,44.6505962586814
231,1436610044319,45.0204724055649
232,1436610045035,44.7680632334601
233,1436610045770,49.4757243413188
234,1436610046503,50.0413079790995
235,1436610047223,47.5820906989153
236,1436610048033,47.2497084447407
237,1436610048715,54.3251582917259
238,1436610049361,56.5130412534884
239,1436610050078,48.6134539022909
240,1436610050815,56.2151208954689
241,1436610051575,50.9344124586569
242,1436610052294,45.0422464950527
243,1436610053097,56.4153143039786
244,1436610053808,50.628889475941
245,1436610054465,46.4984948656168
246,1436610055192,56.3420968943096
247,1436610055918,61.1561678731268
248,1436610056662,48.5000154053809
249,1436610057395,52.0166554364881
250,1436610058200,47.9077391960345
251,1436610058924,52.2867578134269
252,1436610059623,44.6925910093863
253,1436610060227,49.0719846600136
254,1436610060931,46.9232441728149
255,1436610061714,46.1814457916217
256,1436610062429,44.3823876054598
257,1436610063160,51.899468743649
258,1436610063890,42.605476519255
259,1436610064555,47.8412038410708
260,1436610065282,46.3170529247102
261,1436610066017,42.8157507803128
262,1436610066765,39.4124721568502
263,1436610067568,53.0142539701446
264,1436610068309,44.4016863479427
265,1436610069033,40.2341037623752
266,1436610069750,48.2618117265709
267,1436610070433,45.1422846583547
268,1436610071155,59.4492456540225
269,1436610071893,48.2090840781334
270,1436610072652,39.2889704562255
271,1436610073365,57.0473527077543
272,1436610074095,44.213005637751
273,1436610074816,47.3457227960624
274,1436610075516,39.9838921203701
275,1436610076248,56.861811978728
276,1436610076992,39.2575769997652
277,1436610077721,47.2027094131248
278,1436610078453,51.6473957260864
279,1436610079189,58.0517393786735
280,1436610079879,46.6535197105856
281,1436610080486,56.7414408404216
282,1436610081181,48.402386407792
283,1436610081958,44.3078576169242
284,1436610082708,52.9750432488867
285,1436610083399,42.9476700501682
286,1436610084061,40.3857755936145
287,1436610084795,50.1906434459278
288,1436610085519,45.1739190457336
289,1436610086258,62.562148181017
290,1436610087008,57.7037009674265
291,1436610087762,58.4009096467388
292,1436610088508,52.5982385320708
293,1436610089248,53.0980712036298
294,1436610089969,41.009548043237
295,1436610090657,45.5514871875693
296,1436610091321,46.9992886870314
297,1436610092087,44.1290698778624
298,1436610092812,43.9888886997952
299,1436610093592,64.3631130554615
300,1436610094316,59.7021767858924
301,1436610095047,42.6641254549709
302,1436610095757,49.5157701668995
303,1436610096489,42.4254829131355
304,1436610097267,58.0417793994866
305,1436610098009,53.4229264204883
306,1436610098736,47.2997836563688
307,1436610099470,57.4066264282642
308,1436610100202,55.0898793218921
309,1436610100953,43.8188014208968
310,1436610101650,42.6302702254551
311,1436610102603,58.4078484992423
312,1436610103303,57.9014577714014
313,1436610104035,56.5460857674684
314,1436610104767,43.2305359935254
315,1436610105490,39.7528486058747
316,1436610106224,44.4845050843569
317,1436610106951,56.5106339607363
318,1436610107670,59.6975222180506
319,1436610108404,50.9859844114197
320,1436610109162,48.5989559664097
321,1436610109879,48.2558731264522
322,1436610110630,41.439055004768
323,1436610111328,42.7685167764736
324,1436610111982,43.5024007322646
325,1436610112720,47.7071226944597
326,1436610113464,41.4288914015756
327,1436610114197,45.9989368106727
328,1436610114985,45.6685791295327
329,1436610115710,40.9028548546242
330,1436610116397,41.1739459001731
331,1436610117058,42.9516267807263
332,1436610117801,39.5895354107203
333,1436610118532,43.9142548087826
334,1436610119238,41.6202114324671
335,1436610121191,38.2208422667591
336,1436610122027,44.0875899277802
337,1436610122842,41.698834426929
338,1436610123436,38.2005380078534
339,1436610124106,42.6441799877892
340,1436610124832,38.6567024880293
341,1436610125590,58.3514148872417
342,1436610126323,47.903952463524
343,1436610127038,39.5496598283328
344,1436610127762,47.1372985336881
345,1436610128444,39.9378657208463
346,1436610129115,43.5323332754354
347,1436610129828,54.644530293407
348,1436610130553,40.2527482618281
349,1436610131311,59.4947560774537
350,1436610132111,41.0379589224694
351,1436610132845,46.6604885274671
352,1436610133484,50.3190266648403
353,1436610134179,45.2341540927373
354,1436610134923,48.0032518217253
355,1436610135665,48.7064972797685
356,1436610137440,50.1709352687356
357,1436610138168,48.5206151541155
358,1436610138899,48.4694007187679
359,1436610139633,46.424083251649
360,1436610140371,57.2601842886209
361,1436610141092,50.0798834322195
362,1436610141815,60.8398766033326
363,1436610142639,55.6521567689865
364,1436610143316,41.3530456334038
365,1436610143976,56.1071757841816
366,1436610144681,40.3208512791397
367,1436610145351,43.0885850604718
368,1436610146076,46.9088161751301
369,1436610146832,38.8333957013124
370,1436610147512,40.7026900205055
371,1436610148239,43.804738698898
372,1436610148949,46.2578499677756
373,1436610149618,51.3296585287328
374,1436610150362,41.2399518705172
375,1436610151097,36.1396703349523
376,1436610151815,51.9688280420737
377,1436610152596,52.4265265634428
378,1436610153322,52.2616844068781
379,1436610154020,41.7935556022892
380,1436610154696,38.2021376037144
381,1436610155431,40.9878788582481
382,1436610156179,44.4191442626974
383,1436610156903,44.6657829217664
384,1436610159004,48.4843370715074
385,1436610159738,37.9245447507641
386,1436610160469,37.0358221471754
387,1436610161215,47.4711582677578
388,1436610161951,43.8530572522309
389,1436610162771,43.8103113276373
390,1436610163491,39.948471323262
391,1436610164231,44.6647401356375
392,1436610164853,50.983243250241
393,1436610165502,42.7827179861926
394,1436610166201,47.788857297755
395,1436610166942,58.0381788892143
396,1436610167798,41.5808811133721
397,1436610168483,44.3390992112106
398,1436610169205,44.0186706830835
399,1436610169932,39.8706697225028
400,1436610170659,40.3964681873176
401,1436610171386,38.4714893157027
402,1436610172938,46.5388491192352
403,1436610173592,37.9847126175785
404,1436610174324,41.3586313267148
405,1436610175033,42.4483633087321
406,1436610175763,37.5827025818561
407,1436610176461,41.303830878207
408,1436610177161,47.3955127216851
409,1436610177912,42.6989955068398
410,1436610178727,55.7127404282861
411,1436610179475,49.8353757783627
412,1436610180217,42.8440255786489
413,1436610180936,55.7226690970115
414,1436610181646,40.4125911537871
415,1436610182392,41.8924555842128
416,1436610183127,34.0294234406955
417,1436610183877,37.4408030650351
418,1436610184601,35.4964544308324
419,1436610185309,53.8905978124237
420,1436610185909,47.3893959782521
421,1436610186579,62.7176464712393
422,1436610187405,49.9211570210482
423,1436610188172,53.5738031705386
424,1436610188928,57.5164771328485
425,1436610189733,44.8090725653996
426,1436610190463,39.133436644916
427,1436610191197,57.1810149968338
428,1436610191938,51.3518859102687
429,1436610192678,51.6540585738255
430,1436610193405,49.8139734969283
431,1436610194150,43.2020702172583
432,1436610194894,45.7309183020457
433,1436610195676,52.2474503323475
434,1436610196363,46.4261771476728
435,1436610196961,46.8910129413509
436,1436610197653,45.9807341932348
437,1436610198380,49.4774361968626
438,1436610199061,46.4513851326614
439,1436610199797,39.979044307611
440,1436610200544,41.6275740660755
441,1436610201280,55.8510690883432
442,1436610202017,56.7314085174064
443,1436610202785,48.8825521883717
444,1436610203521,48.5677086904381
445,1436610204251,57.7639833612516
446,1436610204998,52.7099745114533
447,1436610205758,55.5028265296738
448,1436610206479,40.6027043358633
449,1436610207240,51.6829487533941
450,1436610207982,64.3383635469163
451,1436610208721,49.7405770400246
452,1436610209436,48.9244109729673
453,1436610210068,61.2716060489836
454,1436610210790,43.8270498357479
455,1436610211473,55.9877953612841
456,1436610212192,47.479850075571
457,1436610212983,42.3701100991345
458,1436610213690,54.936000355264
459,1436610214425,45.2176296574755
460,1436610215167,54.5430759002688
461,1436610215879,39.848518121241
462,1436610216599,46.6459813754457
463,1436610217328,56.09331969701
464,1436610218009,55.9130354961068
465,1436610218741,55.289125123565
466,1436610219461,44.4188260765914
467,1436610220205,58.7523315193547
468,1436610220942,53.9545275901183
469,1436610221624,53.8885240568504
470,1436610222389,48.4295373215993
471,1436610223122,51.6881003259406
472,1436610223865,57.506040437815
473,1436610224595,57.1179463929153
474,1436610225330,57.2795587230988
475,1436610226022,58.8919761758376
476,1436610226659,64.3167088685027
477,1436610227430,63.223360131525
478,1436610228177,60.0606130766647
479,1436610228921,55.6871409867008
480,1436610229661,57.6046839309418
481,1436610230358,58.8006854684423
482,1436610231020,64.1735809604627
483,1436610231708,63.4429330057412
484,1436610232460,62.723467904083
485,1436610233231,61.3514728818954
486,1436610233969,61.5917273793674
487,1436610234704,63.7190680308885
488,1436610235442,66.7190191538324
489,1436610236201,70.4232898061496
490,1436610236915,60.6760945357446
491,1436610237579,62.8615739705093
492,1436610238333,60.3784896816457
493,1436610239051,67.6559565589181
494,1436610239828,67.7903045515587
495,1436610240494,66.364353632863
496,1436610241145,64.0632435704359
497,1436610241814,67.7191955188362
498,1436610242498,65.5051306098347
499,1436610243281,59.7048337723694
500,1436610243997,58.718686061027
501,1436610244709,49.1847397949118
502,1436610245390,42.7408607172409
503,1436610246089,64.4868973473147
504,1436610246710,52.063447654924
505,1436610247365,65.050888900679
506,1436610248070,51.1099401013169
507,1436610248801,50.687663536976
508,1436610249537,51.9829805320535
509,1436610250262,44.9935369475586
510,1436610250994,41.9897192243652
511,1436610251774,46.9368622053732
512,1436610252501,45.0083201692435
513,1436610253303,45.5629762168063
514,1436610254012,55.1650103860434
515,1436610254743,57.5434598832215
516,1436610255476,60.4183754219387
517,1436610256223,63.3108059441644
518,1436610256950,62.6812677158022
519,1436610257638,68.5138229157447
520,1436610258336,70.2511284749872
521,1436610259080,63.2595165517105
522,1436610259786,59.8781930961546
523,1436610260555,59.9718817187468
524,1436610261262,55.9877650903516
525,1436610261985,55.519418281514
526,1436610262759,51.1979354113643
527,1436610263501,48.6806031272175
528,1436610264230,49.3806936677067
529,1436610264962,57.6592345772107
530,1436610265673,45.2564133791258
531,1436610266389,56.8974654219956
532,1436610267109,45.8138046191743
533,1436610267894,43.8782205909718
534,1436610268624,44.5863259970951
535,1436610269309,44.6221641512284
536,1436610270020,45.7146649037533
537,1436610270742,46.818053497326
538,1436610271481,60.7256015315753
539,1436610272195,59.1647074334182
540,1436610272944,65.2332792662947
541,1436610273597,64.7753853708562
542,1436610274288,65.4573035519186
543,1436610275007,60.7787880892709
544,1436610275723,58.1595950854056
545,1436610276464,60.5514889963063
546,1436610277245,57.6889991121198
547,1436610278024,51.2077303356092
548,1436610278754,50.8829905827673
549,1436610279437,47.5411732039927
550,1436610280169,44.5967479906221
551,1436610280902,43.942892610534
552,1436610281675,44.69921160156
553,1436610282491,44.4723739537913
554,1436610283224,46.6992750523895
555,1436610283961,49.7088753730124
556,1436610284702,47.7320875824874
557,1436610285353,51.5597238967875
558,1436610286117,53.6958416307098
559,1436610286873,51.6284054168899
560,1436610287534,53.3733640962652
561,1436610288253,57.8091416610454
562,1436610288947,60.7662634985342
563,1436610289632,61.0823328139557
564,1436610290290,62.16931479121
565,1436610290989,68.6364382371216
566,1436610291703,68.9409658410798
567,1436610292541,71.9386547102312
568,1436610293265,74.9585011102914
569,1436610294002,72.7438803578795
570,1436610294687,74.2371537254265
571,1436610295322,74.4693673184593
572,1436610295959,73.9248151954708
573,1436610296664,75.0745797132739
574,1436610297459,75.1536313274497
575,1436610298199,75.5852776052309
