id,attr_time,attr_db
1,1436609875700,54.8534577760839
2,1436609876436,50.2247985445314
3,1436609877182,53.8565325160117
4,1436609877911,48.7482032459019
5,1436609878642,54.3166654568704
6,1436609879350,56.9781956704939
7,1436609880093,58.2054799788577
8,1436609880846,59.7166987401316
9,1436609881546,60.2439995346109
10,1436609882198,61.5494965879008
11,1436609882908,62.0595991793493
12,1436609883660,62.2450130656702
13,1436609884412,62.2381752918631
14,1436609885151,62.5269179670089
15,1436609885883,63.8607501005216
16,1436609886615,61.5754723998443
17,1436609887351,60.1420031967459
18,1436609888340,60.9174219623502
19,1436609889014,55.6595258668637
20,1436609889621,52.8420628833014
21,1436609890271,54.7092960928702
22,1436609891062,47.4507854872448
23,1436609891854,49.2344568166067
24,1436609892428,51.5077809316643
25,1436609893016,61.1870555192235
26,1436609893628,55.0648472132554
27,1436609894184,63.77532468724
28,1436609894748,60.6696980711948
29,1436609895412,64.7374347945376
30,1436609896138,68.7435929754459
31,1436609896906,72.1373124026129
32,1436609897604,66.8761120800826
33,1436609898338,66.6591078528745
34,1436609899059,64.8073012363325
35,1436609899668,69.4038746900771
36,1436609900350,71.1018517953137
37,1436609901090,66.9824239950713
38,1436609901825,61.1107196730758
39,1436609902527,58.1319974821401
40,1436609903133,63.0840569640439
41,1436609903814,58.8194965349871
42,1436609904539,56.094295101367
43,1436609905272,44.4498388496761
44,1436609906034,50.5465177884846
45,1436609906775,45.8851332452828
46,1436609907514,42.0113341872552
47,1436609908258,63.1113072837332
48,1436609908982,59.50432932831
49,1436609909642,42.5308450394259
50,1436609910281,46.2483098101639
51,1436609911004,40.0080563024492
52,1436609911771,46.0367682328783
53,1436609912492,39.7526038865288
54,1436609913215,39.5712529405388
55,1436609913938,53.5310678720545
56,1436609914671,52.9752401446353
57,1436609915446,37.9692998609627
58,1436609916187,37.7116311229827
59,1436609916922,38.0433753029054
60,1436609917661,65.2275698195065
61,1436609918372,39.6362028088213
62,1436609919092,30.7438476140684
63,1436609919830,50.2932782426832
64,1436609920515,45.3972992175537
65,1436609921135,37.3638495082775
66,1436609921798,54.5862639805374
67,1436609922487,57.086164478575
68,1436609923133,32.5180282686979
69,1436609923820,38.7997895650648
70,1436609924575,42.5871578485814
71,1436609925379,46.2333334426233
72,1436609926185,34.8274623739892
73,1436609926770,56.9543642093479
74,1436609927452,41.7712928126208
75,1436609928207,45.2090741530528
76,1436609928937,38.6962363436217
77,1436609929707,36.2239495413756
78,1436609930421,39.6687505311704
79,1436609931108,44.7102801926024
80,1436609931845,37.8981980271563
81,1436609932544,34.8288777904394
82,1436609933222,36.7665094668928
83,1436609933959,64.9474184224026
84,1436609934712,63.8770972166406
85,1436609935467,39.7379598301753
86,1436609936223,34.9456031762995
87,1436609936968,43.9891943179364
88,1436609937698,40.5951136446201
89,1436609938453,50.6760105053065
90,1436609939194,49.8450652348608
91,1436609939922,55.0436645370348
92,1436609940646,51.503226992203
93,1436609941446,32.517777971393
94,1436609942039,49.3466970729259
95,1436609942738,43.720501946358
96,1436609943465,37.4866884544436
97,1436609944170,36.1558199642025
98,1436609944904,44.4629906279524
99,1436609945650,63.0501667394008
100,1436609946454,51.3331102030552
101,1436609947168,46.0981258423948
102,1436609947914,47.9341274128858
103,1436609948655,54.3012008230178
104,1436609949347,58.650545827083
105,1436609950012,63.8477709159678
106,1436609950697,64.4734264896547
107,1436609951473,59.931791797327
108,1436609952120,62.7104870296219
109,1436609952840,45.273198939499
110,1436609953574,43.4809589366823
111,1436609954290,51.263832274269
112,1436609954983,47.8288644963462
113,1436609955660,54.7559936170246
114,1436609956389,58.1925806406134
115,1436609957123,60.5066775429907
116,1436609957862,50.0402487021153
117,1436609958603,58.6031328898063
118,1436609959389,27.3762635620786
119,1436609960348,27.5615756652571
120,1436609960963,41.4758781318041
121,1436609961626,34.2583486876338
122,1436609962355,56.8994382849526
123,1436609962966,41.2706711192736
124,1436609963631,32.7241404278864
125,1436609964339,46.4269216880958
126,1436609965068,44.6260877301282
127,1436609965783,43.1383777105675
128,1436609966531,55.5506757330412
129,1436609967248,50.693585604926
130,1436609967963,39.0821676781383
131,1436609968655,38.3672045891533
132,1436609969404,39.6992809250279
133,1436609970119,37.6423999346693
134,1436609970854,40.5702565632166
135,1436609971672,43.4867789626019
136,1436609972403,46.0816012538288
137,1436609973097,45.606550177394
138,1436609973765,60.3900590560158
139,1436609974500,52.0393141189799
140,1436609975208,54.263104926367
141,1436609975968,63.2102286961448
142,1436609976655,56.7252446764852
143,1436609977402,60.8928902945898
144,1436609978142,63.5249371261799
145,1436609978864,60.50351613344
146,1436609979579,72.5772705563383
147,1436609980296,64.3708823405325
148,1436609981025,61.5015298937276
149,1436609981832,60.3800538811284
150,1436609982452,53.7807432193914
151,1436609983098,52.2764586280568
152,1436609983831,49.023263401551
153,1436609984570,49.1547836075096
154,1436609985250,61.1524276029465
155,1436609985990,46.710722752626
156,1436609986672,46.738855852149
157,1436609987327,47.6945054267191
158,1436609988905,39.6214413062573
159,1436609989612,63.399820351583
160,1436609990366,44.1693710076254
161,1436609991085,42.8952727300493
162,1436609991886,53.0269181076979
163,1436609992610,71.0248116490786
164,1436609993332,71.7763097619239
165,1436609993964,67.3552356067091
166,1436609994659,62.4584681952736
167,1436609995387,56.9530214538028
168,1436609996135,52.7709725217058
169,1436609996933,48.0943820329967
170,1436609997596,46.1542876194103
171,1436609998246,46.8520868694405
172,1436609998981,45.4254076345696
173,1436609999703,55.3353204142218
174,1436610000447,43.1724903349259
175,1436610001172,44.8277745007349
176,1436610001931,48.7464424262052
177,1436610003483,49.6366780060435
178,1436610004212,49.8903384478965
179,1436610004939,45.6921263793431
180,1436610005645,43.1728070878246
181,1436610006449,46.7600700739356
182,1436610007178,49.416573729916
183,1436610007903,56.3009547763802
184,1436610008682,61.0827193558324
185,1436610009425,48.4030204369538
186,1436610010166,62.6330643110911
187,1436610010911,54.7046327693482
188,1436610011646,48.1657386918677
189,1436610012393,54.0472072194247
190,1436610013144,60.0951992048315
191,1436610013873,58.3444886688039
192,1436610014506,55.5612485313108
193,1436610015214,53.6841106492582
194,1436610015955,56.6020769451844
195,1436610016701,60.0613369246416
196,1436610017302,61.9561285292664
197,1436610017981,67.3443528954154
198,1436610018725,60.0553622680155
199,1436610019461,56.2456055456978
200,1436610020200,48.1940694688294
201,1436610020940,43.9203761698321
202,1436610021721,42.1396961997363
203,1436610022490,37.3345316812666
204,1436610023153,37.8935404392811
205,1436610023859,39.8862246348479
206,1436610024536,35.5701304445841
207,1436610025902,37.0322464894577
208,1436610026575,35.0925334174267
209,1436610027250,54.6854826719924
210,1436610027986,39.7147046414895
211,1436610028714,72.6998639433119
212,1436610029450,67.2877964108797
213,1436610030186,38.8457207612
214,1436610030908,44.8591190712541
215,1436610031654,43.3035845005748
216,1436610032396,70.1690796930733
217,1436610033123,44.0914143832021
218,1436610033850,44.2408526767256
219,1436610034575,55.2098690171828
220,1436610035273,50.865829410056
221,1436610035952,67.6862783638181
222,1436610036622,62.0976967777862
223,1436610037346,72.6027623819171
224,1436610039142,64.6673919267597
225,1436610039833,65.784848047646
226,1436610040638,63.2228506482398
227,1436610041403,59.717620798596
228,1436610042143,49.4616160395186
229,1436610042833,52.939266285011
230,1436610043556,47.5157392489204
231,1436610044276,43.3049702155687
232,1436610045038,54.5526509033489
233,1436610045734,37.8102842935335
234,1436610046374,42.2541221973088
235,1436610047066,39.7780868144848
236,1436610047822,38.7233387861306
237,1436610048439,54.369660436966
238,1436610049121,40.3254815360979
239,1436610049867,43.1394480121617
240,1436610050490,47.1810590310625
241,1436610051211,56.9653572505277
242,1436610051935,50.2773371379838
243,1436610052640,43.973260421647
244,1436610053364,42.6092073101104
245,1436610054089,38.1265926612694
246,1436610054817,46.0645481650519
247,1436610055545,50.7421476426153
248,1436610056281,39.5042944233625
249,1436610056995,64.3250965568339
250,1436610057728,59.1579000582598
251,1436610058423,50.2851310059302
252,1436610059103,58.1663811449924
253,1436610059865,38.2605793734186
254,1436610060631,46.0061135364798
255,1436610061251,55.9169766026877
256,1436610061954,49.0822032373505
257,1436610062698,55.9320839766712
258,1436610063308,32.1593574993654
259,1436610063978,29.7631452924588
260,1436610064705,46.3038629987624
261,1436610065428,44.684550268389
262,1436610066176,39.9081648714671
263,1436610066892,28.4202752548409
264,1436610067595,51.4469242412631
265,1436610068329,34.7099258440717
266,1436610069060,33.7416412016606
267,1436610069715,34.2266574148544
268,1436610070456,35.287069592245
269,1436610071201,37.215440089029
270,1436610071907,43.4348362164969
271,1436610072591,53.3351155232045
272,1436610073331,66.4840936302554
273,1436610074066,39.184546517109
274,1436610074788,54.4918759279184
275,1436610075520,38.6067730098264
276,1436610076239,32.8938404200834
277,1436610076970,34.180283335581
278,1436610077706,31.065041130089
279,1436610078442,57.2912261568583
280,1436610079119,65.8780096765969
281,1436610079831,67.103011101323
282,1436610080591,44.2510038809415
283,1436610081356,42.0862156954282
284,1436610082037,39.9631469312747
285,1436610082732,46.3283789124343
286,1436610083415,26.5043642086462
287,1436610084065,28.7069072910888
288,1436610084803,28.6589359316086
289,1436610085539,40.2246703553885
290,1436610086279,48.0915346532121
291,1436610087015,56.0919403261213
292,1436610087749,57.6296962304202
293,1436610088500,43.8882706562707
294,1436610089224,27.8210911119956
295,1436610089928,36.9169135547099
296,1436610090574,41.6528981558857
297,1436610091262,39.9435338749538
298,1436610092001,34.1985223324605
299,1436610092765,61.2358264992309
300,1436610093511,50.5609011419206
301,1436610094233,63.8175358601486
302,1436610094965,43.5776878688915
303,1436610095700,36.3659290193266
304,1436610096418,35.336844037171
305,1436610097148,45.3550567997599
306,1436610097884,45.5384109375546
307,1436610098600,43.5498286109868
308,1436610099340,50.696094980626
309,1436610100079,48.1794597853318
310,1436610100747,44.6037452121821
311,1436610101482,45.0661941988833
312,1436610102210,54.8819455250851
313,1436610102958,43.4268918505984
314,1436610103637,64.3438164112017
315,1436610104368,54.8552382653728
316,1436610105112,54.1136620851203
317,1436610105835,42.4100842486538
318,1436610106539,51.3539358299381
319,1436610107229,66.7082021082304
320,1436610107971,68.6662576418255
321,1436610108705,42.7014529868051
322,1436610109446,58.9742377191357
323,1436610110174,36.0478791008382
324,1436610110910,28.1295704860822
325,1436610111580,33.6317284911318
326,1436610112277,43.6621869230718
327,1436610112992,36.4386702298665
328,1436610113736,39.5950229031141
329,1436610114407,38.3961511274231
330,1436610115148,34.2341830885568
331,1436610115866,34.2085226932379
332,1436610116620,33.0518296903317
333,1436610117366,29.1942477981309
334,1436610118089,27.573184613922
335,1436610118818,30.7738498135292
336,1436610119549,30.125050941998
337,1436610120296,25.2109734841284
338,1436610121020,23.2876374106083
339,1436610121732,30.1511329431801
340,1436610122420,31.1278709117126
341,1436610123146,28.0593341689536
342,1436610123749,23.3669740144296
343,1436610124445,24.1977922369633
344,1436610125091,25.8320337494708
345,1436610125765,36.8127022987505
346,1436610126483,39.8551576565543
347,1436610127229,35.7681802010991
348,1436610127953,46.9656736648852
349,1436610128691,45.0754113432974
350,1436610129439,45.0379313203024
351,1436610130178,45.6224157459149
352,1436610130920,57.888443016059
353,1436610131651,26.4544653866941
354,1436610132311,24.9115343925043
355,1436610133050,32.4264978799319
356,1436610133809,28.3069850998462
357,1436610134505,36.5950795684439
358,1436610135159,50.18107414195
359,1436610135867,54.2915809293438
360,1436610136612,62.1523407013182
361,1436610137345,58.2802404133194
362,1436610138108,39.5766744049283
363,1436610138842,52.3749741137904
364,1436610139616,49.1735554815139
365,1436610140372,34.9000655180496
366,1436610141119,52.6496279422472
367,1436610141842,43.2372601570101
368,1436610142514,59.140549673366
369,1436610143228,46.9218005066148
370,1436610143873,40.4378162920674
371,1436610144535,46.386632813007
372,1436610145204,23.7180380084866
373,1436610145939,26.1814884763284
374,1436610146669,33.4443144534651
375,1436610147404,30.5560050013618
376,1436610148134,51.0238072539371
377,1436610148873,49.1918194546225
378,1436610149591,46.3287006840955
379,1436610150293,24.9588541331689
380,1436610151029,22.379424163212
381,1436610151769,37.4481460704201
382,1436610152504,52.0024590298929
383,1436610153208,27.9141546628164
384,1436610153880,27.2579220983988
385,1436610154637,40.5909445785912
386,1436610155385,21.0926343924684
387,1436610156113,41.8180367926305
388,1436610156842,23.2340775316827
389,1436610157579,45.559113291382
390,1436610158300,31.6866860539425
391,1436610159027,26.8580055509153
392,1436610159753,44.4573746514882
393,1436610160499,21.1569816888836
394,1436610161248,46.0913961530493
395,1436610162003,53.7214156011033
396,1436610162739,65.0880532862445
397,1436610163424,30.4596583029916
398,1436610164009,37.420484215518
399,1436610164710,27.9510791802624
400,1436610165442,62.0683414568468
401,1436610166290,55.6144965918445
402,1436610167027,41.7051359529167
403,1436610167727,41.3015768864548
404,1436610168443,30.6134243320921
405,1436610169178,34.8661505763239
406,1436610169911,31.1190279227533
407,1436610170678,32.5759281034219
408,1436610171412,33.0502382591628
409,1436610172140,32.3812630935267
410,1436610172898,27.4665282277117
411,1436610173656,28.890158543574
412,1436610174274,52.0331829908659
413,1436610174984,52.0105244790334
414,1436610175639,49.6162315711496
415,1436610176349,41.5806312904617
416,1436610177085,61.1513619951395
417,1436610177812,68.0901359608761
418,1436610178550,62.1001498758867
419,1436610179271,56.7825939702456
420,1436610179992,31.6421243318582
421,1436610180778,45.0070663183681
422,1436610181453,22.8558164480485
423,1436610182121,26.0364240438418
424,1436610182818,23.5597317722638
425,1436610183450,31.0753705528393
426,1436610184098,54.347760381307
427,1436610184799,30.3345598507611
428,1436610185520,50.4843077476939
429,1436610186257,51.7892235543009
430,1436610186956,60.4161747629872
431,1436610187615,38.5591134002363
432,1436610188355,60.0598986009673
433,1436610189129,66.0916047168075
434,1436610189856,56.0136766132549
435,1436610190576,42.4576480378493
436,1436610191298,31.0555601067383
437,1436610193099,66.6207868114492
438,1436610193841,42.5139789954923
439,1436610194533,36.4110969951024
440,1436610195191,37.1661470123373
441,1436610195930,58.081978290783
442,1436610196775,61.7827694924692
443,1436610197441,59.3836838690365
444,1436610198176,48.4984719927382
445,1436610198925,35.9288111846314
446,1436610199664,36.2771678482818
447,1436610200402,33.9563911002626
448,1436610201161,36.3323731267918
449,1436610201895,53.3133276061706
450,1436610202644,45.3883691648217
451,1436610203395,39.4196642729769
452,1436610204177,49.5799652914691
453,1436610204790,59.3846929260551
454,1436610205478,59.1487846307563
455,1436610206248,56.0448702396105
456,1436610207005,41.3290909147868
457,1436610207793,59.6692567934368
458,1436610208520,42.9144492019451
459,1436610209258,44.1021616320042
460,1436610209929,52.4430691740891
461,1436610211373,55.5007919714597
462,1436610212036,55.7190252617325
463,1436610212758,43.9898374795025
464,1436610213489,36.9802753133975
465,1436610214213,52.681853301705
466,1436610214933,36.1838261416852
467,1436610215566,48.3308535999919
468,1436610216296,32.6223649643178
469,1436610217061,33.9785583003426
470,1436610217831,58.5797819954952
471,1436610218516,45.0596993243853
472,1436610219226,58.0682165108437
473,1436610219960,45.0977976174525
474,1436610220699,58.4997325093087
475,1436610221479,55.6446204756237
476,1436610222223,59.4616600368533
477,1436610222959,46.2342356275048
478,1436610223677,55.733420193151
479,1436610224401,59.1898988004581
480,1436610225078,51.1196018997282
481,1436610225794,52.1698597855391
482,1436610226500,60.6008168851064
483,1436610227128,63.8809887909987
484,1436610227902,58.1388190388295
485,1436610228545,53.7011674227286
486,1436610229235,55.6880640011056
487,1436610229964,56.0726751681325
488,1436610230690,58.4408533584071
489,1436610231411,60.2705252619477
490,1436610232120,61.5318282212765
491,1436610232833,61.9518069328052
492,1436610233578,63.3694768905046
493,1436610234332,59.6212406300592
494,1436610235080,63.9102760356525
495,1436610235817,67.66702747621
496,1436610236552,66.634872661035
497,1436610237238,66.2731941590724
498,1436610237926,62.6048682662769
499,1436610238703,60.0615461677751
500,1436610239351,67.4687953020941
501,1436610240041,66.9087788904702
502,1436610240726,62.0052486403674
503,1436610242282,62.6605655167339
504,1436610243024,63.1511100765638
505,1436610243770,48.4711906003623
506,1436610244530,57.0781803879149
507,1436610245137,45.2991533302876
508,1436610245831,45.5488778234737
509,1436610246565,50.673345939194
510,1436610247292,64.6252162536435
511,1436610247956,52.413723198176
512,1436610248705,49.6592192187596
513,1436610249454,62.1884383324453
514,1436610250159,41.6706813094452
515,1436610250896,40.8249337003141
516,1436610251624,42.4292242715064
517,1436610252352,43.3244768665389
518,1436610253083,44.6862592166392
519,1436610253833,45.7404773769405
520,1436610254575,52.7124404593576
521,1436610255320,55.6258109950108
522,1436610256062,59.207475650517
523,1436610256829,62.7709720926008
524,1436610257564,64.0022493101805
525,1436610259624,59.5475437607754
526,1436610260373,56.4174294522184
527,1436610261097,55.610798787118
528,1436610261840,53.3758245475602
529,1436610262566,49.7474531164874
530,1436610263293,47.9927761947101
531,1436610264010,46.84920888954
532,1436610264757,42.7679019245565
533,1436610265569,45.3794056941139
534,1436610266269,39.5357306828777
535,1436610267012,46.6063372692883
536,1436610267734,43.0954395860371
537,1436610268456,42.2844306516492
538,1436610269126,47.1010780349724
539,1436610269859,45.27227995837
540,1436610270523,56.3318683870278
541,1436610271259,47.8000510814075
542,1436610271991,59.0906625848157
543,1436610272734,61.1198826084527
544,1436610273445,67.0486700896789
545,1436610274169,62.7455322821864
546,1436610274904,59.5031921684586
547,1436610275720,55.7683650647763
548,1436610276462,59.2576552836924
549,1436610277194,60.9864493693466
550,1436610277933,54.0252351457195
551,1436610278630,48.6943640226576
552,1436610279380,48.2301575675348
553,1436610280043,44.057468704096
554,1436610280837,42.5027514078781
555,1436610281541,42.1508781663684
556,1436610282273,43.034732490134
557,1436610283007,44.1805279360944
558,1436610283735,45.4162135429305
559,1436610284485,47.8261891559603
560,1436610285244,49.6135993068063
561,1436610285960,51.9340144903938
562,1436610286708,50.2652733431885
563,1436610287461,52.0076681134446
564,1436610288199,56.881944878683
565,1436610288975,57.7029547310913
566,1436610289653,56.3062912564143
567,1436610290295,61.2449938606489
568,1436610291053,67.3569113501149
569,1436610291840,66.1929171162097
570,1436610292580,72.9212089821189
571,1436610293329,75.8420789691475
572,1436610294062,70.719108180425
573,1436610294778,72.060654529904
574,1436610295577,74.114626198583
575,1436610296320,74.0687973829844
576,1436610297050,74.144145440825
