id,attr_time,attr_db
1,1436609875515,48.3281942642345
2,1436609876210,45.177160089015
3,1436609876942,48.261246139631
4,1436609877671,57.2295401344147
5,1436609878332,47.832377851918
6,1436609879643,56.2751871990021
7,1436609880363,62.4276983823754
8,1436609881092,59.0729577763009
9,1436609881853,58.9936951467159
10,1436609882513,59.9049457878317
11,1436609883233,58.7157984820848
12,1436609883932,64.3328193555243
13,1436609884671,62.5241397699296
14,1436609885334,61.9592308431488
15,1436609886100,62.4240107596876
16,1436609886829,61.1749253108664
17,1436609887558,65.0508424504997
18,1436609888327,61.2083774556724
19,1436609889023,61.8193157578025
20,1436609889676,56.0605291956442
21,1436609890387,56.1560040847261
22,1436609891127,58.9367537689683
23,1436609891831,47.7521820730588
24,1436609892441,50.2141144880879
25,1436609893134,65.1300383852462
26,1436609893865,57.5818905094405
27,1436609894600,63.8386145577386
28,1436609895326,63.3331550153622
29,1436609896095,63.9988147617433
30,1436609896837,67.1636183595768
31,1436609897565,68.4256492708669
32,1436609898280,62.3084034278914
33,1436609898993,59.7433517669972
34,1436609899706,68.3503820681399
35,1436609900385,68.7381154440164
36,1436609901097,64.4764484274786
37,1436609901775,58.5647418580825
38,1436609902467,57.2947031681409
39,1436609903178,68.0829137742546
40,1436609903909,59.530624221129
41,1436609904606,59.0972715075079
42,1436609905325,45.1000255796099
43,1436609906075,50.7055671028483
44,1436609906822,45.5218433430385
45,1436609907526,45.3916162514066
46,1436609908259,64.0901071848104
47,1436609908966,55.8620893988764
48,1436609909704,44.3613866744769
49,1436609910386,41.6668305181664
50,1436609911351,50.0325485345071
51,1436609912155,50.4256394211489
52,1436609912697,48.2061960759485
53,1436609913267,43.5358436842314
54,1436609913846,53.3904229421721
55,1436609914425,53.8241684909297
56,1436609914996,49.1998431647893
57,1436609915569,49.2063229772287
58,1436609916154,50.0034407385261
59,1436609916716,47.6652122841247
60,1436609917260,53.0083183798238
61,1436609917917,58.3337961745634
62,1436609918570,42.9818105079592
63,1436609919206,54.2479759652469
64,1436609919909,53.739576477253
65,1436609920529,47.0533946280632
66,1436609921190,46.5941366911339
67,1436609921928,60.6918728336165
68,1436609922677,43.6780614845698
69,1436609923343,44.6365432492713
70,1436609924009,50.6541355484444
71,1436609924676,42.8445433000951
72,1436609925337,53.3480247711671
73,1436609926056,49.2888549540495
74,1436609926831,47.7361836881985
75,1436609927546,41.0740393559763
76,1436609928288,51.5971855326762
77,1436609929024,50.2591673048025
78,1436609929742,38.8776760668801
79,1436609930509,48.2785716879986
80,1436609931262,49.7385047851018
81,1436609931987,42.8299131913769
82,1436609932669,38.8737221755163
83,1436609933342,38.9346394113797
84,1436609934073,58.6471025909726
85,1436609934802,43.1369394318619
86,1436609935536,56.5512865843917
87,1436609936223,43.0892122818872
88,1436609936896,52.2860654227789
89,1436609937545,50.0653486732778
90,1436609938169,40.9300969113937
91,1436609938841,59.3418836782911
92,1436609939546,55.8076825122702
93,1436609940308,42.2814699942766
94,1436609941038,50.3522580773153
95,1436609941766,47.0051874059053
96,1436609942477,55.3164333246113
97,1436609943183,56.3666036177115
98,1436609943909,51.8723925606029
99,1436609944639,59.2375253838639
100,1436609945337,43.819433072041
101,1436609945924,42.7134612638314
102,1436609946542,52.5217259772736
103,1436609947237,43.2615254161924
104,1436609947919,43.9129232071605
105,1436609948555,53.0049694229724
106,1436609949223,55.8344379234114
107,1436609949961,59.8584627474136
108,1436609950727,61.9459210723631
109,1436609951455,58.5877767170336
110,1436609952181,57.8759035399556
111,1436609952923,62.0015640196555
112,1436609953643,45.3249408337225
113,1436609954312,52.1609154602469
114,1436609955113,56.3314089782875
115,1436609955880,39.9927654140133
116,1436609956620,56.5260186707099
117,1436609957325,54.9843486058084
118,1436609958061,48.4440388326293
119,1436609958788,58.550577255777
120,1436609959458,46.2881491715855
121,1436609960224,44.5957733012309
122,1436609960952,51.1305469622521
123,1436609961690,53.3469104810436
124,1436609962436,54.7050660858547
125,1436609963155,41.7991786665689
126,1436609963847,45.3496248891442
127,1436609964487,54.191555635858
128,1436609965209,61.0656165987572
129,1436609965888,59.7609474514687
130,1436609966514,58.2667401143863
131,1436609967194,42.7977077935124
132,1436609967917,48.2660004129199
133,1436609968618,48.9323317323379
134,1436609969240,52.1599858040509
135,1436609969928,46.8211779527766
136,1436609970658,41.5287940042988
137,1436609971386,45.1185290290928
138,1436609972104,48.9762883862866
139,1436609972844,46.0799789967181
140,1436609973548,48.0843123810826
141,1436609974277,55.645904131271
142,1436609975016,57.7571604125097
143,1436609975756,55.4071957154881
144,1436609976479,57.5194704702903
145,1436609977199,62.7676845866808
146,1436609977969,60.6196856294852
147,1436609978709,58.4625594023057
148,1436609979437,68.021452675777
149,1436609980152,66.3384713671049
150,1436609980898,62.6039413022887
151,1436609981630,61.6326068228866
152,1436609982356,61.769135669576
153,1436609983084,50.9165740421403
154,1436609983784,51.5618641430475
155,1436609984444,48.6120993158663
156,1436609985162,60.3857326162069
157,1436609985889,48.8696225141469
158,1436609986590,56.228117181551
159,1436609987332,49.6324280093893
160,1436609988105,62.2328078975154
161,1436609988720,57.715337626551
162,1436609989393,57.6515320287333
163,1436609990121,60.1799808907429
164,1436609990847,50.7675141316376
165,1436609991569,49.1039188651671
166,1436609992296,63.9603098323691
167,1436609993023,60.1576189909032
168,1436609993754,65.7412496354499
169,1436609994486,58.1367465396645
170,1436609995162,57.3839418266849
171,1436609995901,58.8681700388191
172,1436609996629,56.8897891785774
173,1436609997359,54.4387154107189
174,1436609998092,49.5294213631133
175,1436609998846,47.1457642057576
176,1436609999554,43.2203386020998
177,1436610000287,54.9645314704858
178,1436610001048,56.1393879654306
179,1436610001757,48.0304055776825
180,1436610002491,49.5529389284966
181,1436610003240,52.257019879442
182,1436610004001,49.9046951934935
183,1436610004755,46.6269052792577
184,1436610005407,41.8008554062521
185,1436610006162,48.1002239470383
186,1436610006866,62.3795234191039
187,1436610007568,57.1585283165192
188,1436610008238,47.6324330336585
189,1436610008830,53.3891192453772
190,1436610009521,61.6508843810499
191,1436610010253,65.4165662390038
192,1436610011001,48.4760166220677
193,1436610011738,46.4015021718177
194,1436610012471,56.4707453216459
195,1436610013189,57.0202092522044
196,1436610013919,54.9431721810854
197,1436610014598,55.2857030807907
198,1436610015276,54.0539590121252
199,1436610015984,58.2814755390163
200,1436610016712,57.418582353775
201,1436610017474,61.4210207289764
202,1436610018210,64.454958978373
203,1436610018930,57.2365218803518
204,1436610019659,52.7248657352372
205,1436610020394,61.0925346651303
206,1436610021139,46.8706497098575
207,1436610021879,46.0566188204825
208,1436610022606,61.3448497929104
209,1436610023337,48.3028623918062
210,1436610024049,42.165924117205
211,1436610024784,46.629072563323
212,1436610025452,48.973389867129
213,1436610026157,42.195764080038
214,1436610026858,52.4035001607194
215,1436610027542,46.4258134707787
216,1436610028209,58.9190813920527
217,1436610028917,60.0921679443043
218,1436610029626,54.3687183260757
219,1436610030253,50.1158640120193
220,1436610030952,52.9992407456367
221,1436610031668,42.6958949691741
222,1436610032393,59.2961644647308
223,1436610033135,50.8527728001157
224,1436610033860,55.9460721586788
225,1436610034592,48.986307773385
226,1436610035303,47.4778244700055
227,1436610035943,63.7313655420726
228,1436610036661,55.5797056402197
229,1436610037388,61.7872029634772
230,1436610038114,67.449146093447
231,1436610038861,63.0512639824768
232,1436610039595,62.6578953910215
233,1436610040338,54.8924612806022
234,1436610041070,52.127576733755
235,1436610041811,45.4797746426402
236,1436610042499,44.0115665136046
237,1436610043219,55.5938320076082
238,1436610043931,45.9752349669339
239,1436610044660,47.2808845342791
240,1436610045356,52.3786241564644
241,1436610046087,59.7222359558246
242,1436610046804,45.2408418582386
243,1436610047507,43.8897777048599
244,1436610048220,48.209868044021
245,1436610049948,60.5592508085312
246,1436610050626,63.7381455572318
247,1436610051372,56.3452788371809
248,1436610052112,48.4021865354424
249,1436610052849,58.5924474148843
250,1436610053563,49.2434057694374
251,1436610054300,44.3914609335904
252,1436610055026,49.66481601947
253,1436610055736,50.6500789901916
254,1436610056411,39.9190588413088
255,1436610057102,50.0136022317018
256,1436610057798,52.9144072492154
257,1436610058535,53.2590541711222
258,1436610059296,60.6536630493682
259,1436610060009,50.3736372687025
260,1436610060742,55.7124939483644
261,1436610061460,44.9967328334517
262,1436610062231,61.0125863750934
263,1436610062935,53.0422854232806
264,1436610064663,49.5381164284313
265,1436610065326,42.6139580539131
266,1436610066039,54.4795131302722
267,1436610066716,51.4319665610676
268,1436610067430,59.7310862113552
269,1436610068163,48.982357796565
270,1436610068926,42.0235424887916
271,1436610069655,55.3851130119873
272,1436610070356,47.4165154390914
273,1436610071118,48.8677531764238
274,1436610071850,51.115822860976
275,1436610072558,56.6925729421839
276,1436610073281,57.0246938478882
277,1436610074029,56.5202048046278
278,1436610074752,55.9888933122014
279,1436610075462,65.3332234609652
280,1436610076175,44.0754913835207
281,1436610076858,38.4381110561033
282,1436610077582,49.3901530938813
283,1436610078296,59.6074275188671
284,1436610079024,50.5286855861321
285,1436610079746,61.6313942967037
286,1436610080348,49.981467562557
287,1436610081090,52.3546701657658
288,1436610081856,48.399865578323
289,1436610082592,46.5970076644305
290,1436610083324,55.2762705379535
291,1436610084045,40.3019586617495
292,1436610084760,39.2222488396051
293,1436610085476,54.938089252489
294,1436610087473,55.9775420205653
295,1436610088178,67.0715925657439
296,1436610088889,56.4962297586651
297,1436610089608,42.4471491745719
298,1436610090297,41.7833086553574
299,1436610091006,47.5962417019629
300,1436610091674,49.3355294446471
301,1436610092428,59.6015013419026
302,1436610093158,63.7960665111879
303,1436610093889,58.7687605648125
304,1436610094618,57.5667805639706
305,1436610095340,49.9008486433116
306,1436610096071,47.3447098408262
307,1436610096862,56.7286816546509
308,1436610097556,60.1022500860206
309,1436610098269,51.9541853799381
310,1436610100163,53.1206283767262
311,1436610100807,56.0129875133916
312,1436610101476,55.7080568896044
313,1436610102164,47.7709274495196
314,1436610102899,46.9244556968471
315,1436610103623,59.4729740460379
316,1436610104347,51.8963474660151
317,1436610105079,49.2868810242795
318,1436610105810,52.3643995944223
319,1436610106518,56.3284406130873
320,1436610107212,57.0211862660006
321,1436610107893,57.5114622705189
322,1436610108650,48.0778730882997
323,1436610109347,53.9129762729235
324,1436610110023,54.0583835228149
325,1436610110687,56.0157768251763
326,1436610111460,42.3464539120413
327,1436610112189,47.8513024019676
328,1436610112933,56.3435591793748
329,1436610113669,47.4122916062977
330,1436610114361,55.7143742303416
331,1436610115008,47.694479718267
332,1436610115731,51.7575598343866
333,1436610116497,40.8286125403841
334,1436610117174,54.5873705591984
335,1436610117903,56.1420772058714
336,1436610118655,46.9987413823318
337,1436610119433,59.0234926935628
338,1436610120167,57.7758041596701
339,1436610120922,46.7504923939345
340,1436610121644,46.4078272660942
341,1436610122366,57.7339615733014
342,1436610123109,55.5752675592229
343,1436610123865,58.2239472346199
344,1436610124524,50.7737412768711
345,1436610125239,57.9717731314777
346,1436610125988,47.431834032748
347,1436610126716,41.6272496666834
348,1436610127454,59.475803720532
349,1436610128112,53.0402213801326
350,1436610128835,50.4965408517358
351,1436610129568,54.6953765261116
352,1436610130304,58.5764694486464
353,1436610130966,51.1405619615226
354,1436610131740,41.6360071229642
355,1436610132452,38.5384501405075
356,1436610133166,51.8034212648061
357,1436610133886,45.0840745676942
358,1436610134622,44.8783071677568
359,1436610135355,45.8947159438962
360,1436610136080,55.2293696569831
361,1436610136802,49.216932066609
362,1436610137520,48.7521008625614
363,1436610138164,45.9797314902783
364,1436610138891,54.535405895457
365,1436610139614,46.6424596546429
366,1436610140355,45.0135679162974
367,1436610141082,52.6435844083465
368,1436610141820,54.5498186075059
369,1436610142547,60.5804280074204
370,1436610143273,49.8979973396984
371,1436610143998,51.6009668049619
372,1436610144697,53.0881667660527
373,1436610145392,45.9032807095419
374,1436610146113,51.3125676956619
375,1436610146852,48.0702398811019
376,1436610147593,57.9928183577929
377,1436610148305,55.0339861480073
378,1436610149038,49.4676773202513
379,1436610149797,54.4502421940901
380,1436610150525,53.1825398395368
381,1436610151204,50.2830362968115
382,1436610151897,52.8243155673638
383,1436610152614,55.4813460580897
384,1436610153258,46.6207982604316
385,1436610153991,46.9132437102485
386,1436610154709,44.831944445368
387,1436610155435,30.9510204774186
388,1436610156171,45.1263247263077
389,1436610156899,55.0712674049178
390,1436610157607,55.7526292544652
391,1436610158263,49.0233639168346
392,1436610158985,39.3898589220773
393,1436610159718,46.8977592458013
394,1436610160434,57.1111849080728
395,1436610161179,50.849922692719
396,1436610161928,49.4882147016647
397,1436610162595,56.8463401334453
398,1436610163337,46.3602907062395
399,1436610164067,58.2554390234766
400,1436610164807,50.2363502057745
401,1436610165541,45.5051033365537
402,1436610166269,54.9240275255344
403,1436610166997,52.3527993644422
404,1436610167727,55.3213865992701
405,1436610168452,39.3995168750781
406,1436610169108,57.0104831152811
407,1436610169829,50.2712533734581
408,1436610170600,44.4117545470922
409,1436610171215,43.8693691103337
410,1436610171901,46.1482936536782
411,1436610172621,51.1246370175827
412,1436610173363,50.208260176481
413,1436610174097,50.2864112279313
414,1436610174826,43.2578827910629
415,1436610175550,42.3201197738852
416,1436610176270,41.7512532457531
417,1436610177010,59.6278046476076
418,1436610177741,58.002601044539
419,1436610178431,58.3744058830251
420,1436610179120,58.6629262543252
421,1436610179857,58.429005401999
422,1436610180601,57.0599201474755
423,1436610181337,52.6756775732833
424,1436610182065,51.8760745499616
425,1436610182813,40.8514310442374
426,1436610183483,36.7405322108807
427,1436610184215,38.4867119463116
428,1436610184953,48.3544959866191
429,1436610185699,56.0890328082964
430,1436610186439,47.8374666104302
431,1436610187179,56.502573155366
432,1436610187901,58.7841862668779
433,1436610188615,57.1918050810943
434,1436610189302,48.5814539907681
435,1436610190037,40.8596070550913
436,1436610190724,43.8627762047524
437,1436610191310,53.6121455107338
438,1436610191991,55.6644987393631
439,1436610192785,50.3007932779336
440,1436610193391,55.3459735346585
441,1436610194086,39.1065894104589
442,1436610194810,40.4720004757677
443,1436610195507,56.7799201098107
444,1436610196242,58.7769057689133
445,1436610196980,56.2970449255337
446,1436610197699,43.7722424733064
447,1436610198385,42.0209583176069
448,1436610199090,47.4985008435608
449,1436610199752,61.0054742562687
450,1436610200458,57.5968579468443
451,1436610201202,41.1137030435111
452,1436610201933,56.9365899553967
453,1436610202681,45.7243107096545
454,1436610203394,46.1278217150886
455,1436610204117,53.1145876546237
456,1436610204895,48.1077369836376
457,1436610205626,55.7278766750053
458,1436610206365,56.2699396109025
459,1436610207093,38.0734389078348
460,1436610207831,55.4012755029357
461,1436610208553,59.2202829809078
462,1436610209250,54.7407750368089
463,1436610209934,58.5963946074895
464,1436610210658,42.8159957270809
465,1436610211346,46.2596666029914
466,1436610212025,54.1875495799675
467,1436610212826,43.8571126467125
468,1436610213490,52.7951732542092
469,1436610214202,55.3255643019437
470,1436610214920,46.6577353598438
471,1436610215656,54.5274731066355
472,1436610216377,38.2937327261283
473,1436610217110,43.475787203636
474,1436610217840,57.0657393161889
475,1436610218562,52.8635443117977
476,1436610219272,59.1369333000336
477,1436610219975,43.2149846271058
478,1436610220657,57.6128543520417
479,1436610221397,58.5168049300675
480,1436610222137,53.6826819349573
481,1436610222869,51.2279623021352
482,1436610223606,48.2993738451517
483,1436610224300,49.1260305701742
484,1436610225025,54.5088611015139
485,1436610225738,58.6770817792828
486,1436610226479,52.5585093143253
487,1436610227218,58.7755494214978
488,1436610227911,54.0524484547921
489,1436610228583,51.8167776065811
490,1436610229306,53.8422196866948
491,1436610229989,51.456702587456
492,1436610230653,59.941574742767
493,1436610231436,59.3817958262181
494,1436610232115,60.2877880804437
495,1436610232849,57.5946603334143
496,1436610233545,61.8007946759549
497,1436610234279,57.0035201956858
498,1436610235011,58.784098230999
499,1436610235750,59.7440623994942
500,1436610236457,66.0373476172222
501,1436610237190,61.1968357866601
502,1436610237929,61.1845935815113
503,1436610238661,59.8051990026576
504,1436610239383,68.3432103916201
505,1436610240091,65.1337980328367
506,1436610240748,61.3780911712212
507,1436610241484,62.7847278242177
508,1436610242223,67.0957163554977
509,1436610242933,62.3855037480138
510,1436610243666,61.7751870915487
511,1436610244383,54.2097406734341
512,1436610245068,52.0304821556194
513,1436610245743,59.1612610018489
514,1436610246478,50.5846662085441
515,1436610247208,56.2457590914899
516,1436610247950,53.037093076766
517,1436610248683,47.7028502963362
518,1436610249420,48.5455607258115
519,1436610250150,47.0114400997073
520,1436610250824,57.5656390243118
521,1436610251498,50.0693117574799
522,1436610252119,40.8537372555017
523,1436610252746,44.9866872655766
524,1436610254268,50.6081735592785
525,1436610254967,57.6487902052428
526,1436610255715,58.5293081017011
527,1436610256457,60.6999694932982
528,1436610257184,62.2965712653269
529,1436610257928,69.2140497797609
530,1436610258658,66.7322225944308
531,1436610259406,58.9808829254924
532,1436610260122,52.2719478320034
533,1436610260825,54.9019926429807
534,1436610261513,52.5043975175374
535,1436610262245,46.8892461157731
536,1436610262957,45.3167985839855
537,1436610263719,48.850743827093
538,1436610264440,54.2824900356073
539,1436610265167,55.9042421671225
540,1436610265942,54.9121182746105
541,1436610266681,53.2148750614335
542,1436610267411,63.0311426198096
543,1436610268159,49.1726975901808
544,1436610268898,45.9396641372585
545,1436610269636,54.5139811330699
546,1436610270357,47.675034361651
547,1436610271034,60.0563854313132
548,1436610272726,57.5905337524227
549,1436610273450,65.0608970604824
550,1436610274175,59.9225296597886
551,1436610274923,58.0501337184125
552,1436610275599,52.4343787983345
553,1436610276328,53.4424169776249
554,1436610277068,55.4028595897844
555,1436610277791,52.3244511046065
556,1436610278521,50.2180335377034
557,1436610279238,48.542813511059
558,1436610279969,43.8010692509256
559,1436610280673,43.903319804689
560,1436610281347,57.9645521431633
561,1436610282078,59.6487965236198
562,1436610282853,47.2271424934633
563,1436610283562,57.247497507342
564,1436610284280,52.7332182729568
565,1436610284979,48.1288711247386
566,1436610285680,65.9528224323863
567,1436610286371,57.030955754729
568,1436610286990,56.5460736902998
569,1436610287697,53.6214363089699
570,1436610288441,55.8974759416863
571,1436610289179,59.1420336877731
572,1436610289914,59.8529488297203
573,1436610290640,63.1846159721768
574,1436610291386,71.2239782546296
575,1436610292001,70.1858779757072
