id,attr_time,attr_db
1,1436605249254,5.79480829748961
2,1436605250000,8.29719053751205
3,1436605250728,8.42572901359443
4,1436605251463,11.261876393749
5,1436605252199,22.0487060270865
6,1436605252924,17.7447176558426
7,1436605253672,35.554750876249
8,1436605254396,39.209771194678
9,1436605255118,43.9213456388977
10,1436605255843,57.7749766495512
11,1436605256567,40.9905648450702
12,1436605257304,40.5356605249315
13,1436605258042,45.9920887967025
14,1436605258782,39.0485629636194
15,1436605259522,32.1608281226831
16,1436605260266,48.3075102625433
17,1436605261019,51.1147331646503
18,1436605261775,47.5938985670015
19,1436605262524,34.3177956826707
20,1436605263144,38.0671285455911
21,1436605263846,18.5782458541571
22,1436605264552,45.3909210636175
23,1436605265279,32.4967487040303
24,1436605265993,56.6578502854828
25,1436605266701,31.7976480828498
26,1436605267318,5.47118674556536
27,1436605267964,14.8049773679806
28,1436605268759,2.70341053276487
29,1436605269505,6.27305144559784
30,1436605270219,43.2400616514436
31,1436605270931,30.5119114526476
32,1436605271716,39.7834298814296
33,1436605272469,43.0612038325427
34,1436605273180,47.7057062027098
35,1436605273911,12.7440384130086
36,1436605274673,46.4178064986286
37,1436605275468,18.1778515076196
38,1436605276212,19.780490035147
39,1436605276927,50.77365253768
40,1436605277662,45.1374004167671
41,1436605278387,37.234388345683
42,1436605279116,9.74202239803908
43,1436605279753,48.2907146801452
44,1436605280401,60.0358600775974
45,1436605281108,48.8360591159347
46,1436605281858,35.210161628908
47,1436605282596,58.2125027818325
48,1436605283314,41.9106071652174
49,1436605284045,34.3518968591417
50,1436605284811,11.8901991120199
51,1436605285634,7.63379503283579
52,1436605286348,41.1538041089362
53,1436605287090,41.5761664189542
54,1436605287823,35.3076048670628
55,1436605288550,15.5983950618014
56,1436605289267,54.8680112960404
57,1436605290071,58.6388260906578
58,1436605290814,58.1461231640539
59,1436605291529,60.8294330955046
60,1436605292239,41.8446160746485
61,1436605292973,41.1211433443327
62,1436605293732,47.8008257831495
63,1436605294465,56.94961862463
64,1436605295229,64.4761291455854
65,1436605295925,60.5600261470683
66,1436605296599,61.7715734434403
67,1436605297318,55.3408611851337
68,1436605298054,46.5495348399281
69,1436605298794,54.7663667594563
70,1436605299538,54.0875878569705
71,1436605300305,48.1189974176872
72,1436605301055,48.6225768010963
73,1436605301809,44.4852256957679
74,1436605302544,28.4268098186276
75,1436605303242,42.1593638369109
76,1436605303911,36.9913228691745
77,1436605304640,50.6161892492938
78,1436605305373,39.7248337411193
79,1436605306101,35.3106953919953
80,1436605306821,37.4006176326255
81,1436605307487,43.4484927085776
82,1436605308183,35.5209861579708
83,1436605308919,39.7676650052605
84,1436605309688,40.1032774630375
85,1436605310428,40.9262467618826
86,1436605311131,15.8968429577596
87,1436605311810,41.6662386489944
88,1436605312530,51.5897178270673
89,1436605313273,55.0502254937699
90,1436605314005,52.791683638966
91,1436605314766,55.91435140822
92,1436605315501,47.3262660246299
93,1436605316230,34.8670450964649
94,1436605316973,42.1110913856355
95,1436605317725,18.9526295858892
96,1436605318447,24.8309099838655
97,1436605319190,46.1607829742096
98,1436605319908,50.8124767322207
99,1436605320718,53.2533833596572
100,1436605321439,44.6561139129009
101,1436605322154,51.5907022215615
102,1436605322866,45.3069967972119
103,1436605323468,35.295453781
104,1436605324138,32.6337479758129
105,1436605324851,7.44413379839125
106,1436605325585,11.5237682133093
107,1436605326300,39.9437183759419
108,1436605327010,10.6436327556289
109,1436605327688,16.4666363666536
110,1436605328432,25.5342393664631
111,1436605329158,19.9750891717117
112,1436605329883,34.9377922441421
113,1436605330632,37.9480909981049
114,1436605331364,33.5068921953558
115,1436605332097,39.4311820091371
116,1436605332812,52.7212309090942
117,1436605333532,63.4521105417994
118,1436605334258,40.0149265797446
119,1436605334993,38.7775654531669
120,1436605335799,30.5636680362689
121,1436605336533,38.0992045848506
122,1436605337282,17.9145658517396
123,1436605338027,11.9512700833799
124,1436605338750,40.5489128144048
125,1436605339461,38.7663481651685
126,1436605340257,21.7291793376758
127,1436605340988,19.7713905222587
128,1436605341715,47.820284988939
129,1436605342402,35.27003988337
130,1436605343149,47.8387467213313
131,1436605343787,44.2727656193568
132,1436605344517,46.0470116060693
133,1436605345265,5.85994893096885
134,1436605346076,52.6804711604431
135,1436605346787,27.589668182552
136,1436605347475,9.78773068666376
137,1436605348218,13.4676504210441
138,1436605348965,1.87476644881471
139,1436605349715,43.3286176034972
140,1436605350438,15.3876328520221
141,1436605351163,34.7508396279179
142,1436605351883,0.607026871526848
143,1436605352659,38.8115317620372
144,1436605353384,28.6696901012286
145,1436605354106,40.1196502214349
146,1436605354829,35.0266239713625
147,1436605355557,36.9430644706445
148,1436605356290,39.1784691200984
149,1436605357036,13.7169390551977
150,1436605357796,41.8752424934973
151,1436605358513,41.8459983809434
152,1436605359242,13.2269243714809
153,1436605359962,44.5255039924283
154,1436605360718,40.0127931965724
155,1436605361446,43.0563518783147
156,1436605362177,37.6154369118256
157,1436605362940,42.1135387017419
158,1436605363720,31.768711058743
159,1436605364454,36.4383586786852
160,1436605365181,9.11507050022169
161,1436605365920,36.1369482240131
162,1436605366699,15.4960882513284
163,1436605367418,58.2477302320961
164,1436605368163,38.6210530779993
165,1436605368910,44.4238318931902
166,1436605369680,51.8267195915124
167,1436605370494,37.1628651210307
168,1436605371222,45.6561584113468
169,1436605371956,46.1015065824335
170,1436605372735,49.7293893704732
171,1436605373460,50.6282184658872
172,1436605374164,40.4420589780065
173,1436605374869,63.5209395334754
174,1436605375630,63.1242175253184
175,1436605376342,40.4147420797595
176,1436605377092,43.7717468520924
177,1436605377828,49.0597772026747
178,1436605378544,42.3202826872467
179,1436605379270,47.262045935514
180,1436605380006,49.4629487091176
181,1436605380770,45.1688939279861
182,1436605381509,43.288059022455
183,1436605382224,39.0337955572829
184,1436605382965,45.8560044450187
185,1436605383671,59.0469031151994
186,1436605384248,44.1348274969475
187,1436605384856,25.985368426983
188,1436605385830,9.86067913565247
189,1436605386504,44.6794225455908
190,1436605387242,39.9791921508496
191,1436605388013,33.1132170829131
192,1436605388610,37.6075432584172
193,1436605389293,46.225519891705
194,1436605390030,41.8406999746422
195,1436605390810,53.8042601210361
196,1436605391535,46.1496191539977
197,1436605392257,30.162320147453
198,1436605393011,31.5743679560272
199,1436605393774,58.4000745063006
200,1436605394420,9.47461060456426
201,1436605395077,13.2410407307297
202,1436605397134,37.5657412717078
203,1436605397878,39.5565024306627
204,1436605398632,50.6986137753601
205,1436605399332,34.4452741282872
206,1436605400072,36.4708211861406
207,1436605400803,10.7042493245507
208,1436605401541,24.391680015647
209,1436605402284,41.2475846765948
210,1436605403029,36.5615645781777
211,1436605403776,21.2126776048031
212,1436605404430,16.09916940946
213,1436605405075,35.4444950793711
214,1436605405797,16.4962960315861
215,1436605406535,20.5237347077581
216,1436605407275,35.4749794968707
217,1436605408042,26.2445776106786
218,1436605408794,10.3303174242591
219,1436605409543,47.1503207953414
220,1436605410271,42.5085616177733
221,1436605411632,37.8907404826263
222,1436605412314,40.4522844223526
223,1436605413053,42.2729844253592
224,1436605413796,34.0786900988189
225,1436605414538,29.3211051633212
226,1436605415254,19.6105032461154
227,1436605415991,22.1682087805665
228,1436605416724,33.7000202356831
229,1436605417451,25.9012323708958
230,1436605418173,16.4721194665747
231,1436605418887,4.69990028648127
232,1436605419574,4.43012698135799
233,1436605421365,25.7115009761047
234,1436605422037,20.2763169871847
235,1436605422778,14.8786943212545
236,1436605423525,11.8372018715857
237,1436605424349,15.5824541556991
238,1436605424988,55.6745772227868
239,1436605425722,41.4800908778185
240,1436605426443,19.2101627189464
241,1436605427181,40.6365354405751
242,1436605427890,56.5898769839503
243,1436605428685,49.303495175296
244,1436605429418,56.7166185061019
245,1436605430143,33.9846392517261
246,1436605430867,51.3470821232756
247,1436605431612,47.1345224325158
248,1436605432344,30.3306912068806
249,1436605433075,41.2204353750961
250,1436605433817,19.4203109706453
251,1436605434552,50.058971800595
252,1436605435298,49.3584147613254
253,1436605436033,13.727763872024
254,1436605436787,52.6914090319515
255,1436605437529,17.1443926968367
256,1436605438268,22.7578765133644
257,1436605438999,58.241285346974
258,1436605439746,36.6463891052797
259,1436605440557,57.2121398850814
260,1436605441285,51.6987414412291
261,1436605442039,41.8813596542955
262,1436605442778,31.8042029937121
263,1436605443519,33.1726278951184
264,1436605444210,41.6763558962231
265,1436605444813,11.2610549802657
266,1436605445485,54.8219180582922
267,1436605446203,19.8749281725615
268,1436605446945,18.8228489000462
269,1436605447707,55.8679740973691
270,1436605448411,47.6320272348848
271,1436605449102,13.9230596931941
272,1436605449817,42.8366938778693
273,1436605450600,43.9945220882529
274,1436605451320,39.3673854319289
275,1436605452073,56.3912443164242
276,1436605452804,43.2285973066201
277,1436605453548,10.5367851044738
278,1436605454343,58.2770276320445
279,1436605455150,51.4747136679386
280,1436605455881,54.2923736430444
281,1436605456635,47.1461483345833
282,1436605457373,33.9109998772149
283,1436605458099,48.945322403678
284,1436605458837,53.609378167409
285,1436605459564,58.8783868543089
286,1436605460267,43.0884277521314
287,1436605461005,47.1070685880178
288,1436605461722,63.2121866986836
289,1436605462396,50.9857974961892
290,1436605463129,37.7414629054716
291,1436605463861,70.3986161198393
292,1436605464691,52.54950679667
293,1436605465371,42.9383218812636
294,1436605466088,36.1142961291239
295,1436605466821,54.3283354911981
296,1436605467562,28.4186753828457
297,1436605468287,36.045684734851
298,1436605468953,36.0216470161853
299,1436605469623,33.3382868867765
300,1436605470374,29.8075948405891
301,1436605471117,40.5671228220885
302,1436605471843,39.221560269974
303,1436605472567,33.4384138016484
304,1436605473308,11.0159046409435
305,1436605474043,44.6323449318236
306,1436605474788,26.9612582684395
307,1436605475523,15.2284277984817
308,1436605476251,15.5507397748334
309,1436605476998,13.3207774579998
310,1436605477783,8.58239168001895
311,1436605478517,55.5154315521327
312,1436605479237,21.6507570081314
313,1436605479971,20.8572820940262
314,1436605480800,38.0142152716871
315,1436605481517,45.0968308726425
316,1436605482129,34.9284394303859
317,1436605482820,24.1453634118723
318,1436605483561,39.9824368885929
319,1436605484372,43.4707078972907
320,1436605485102,42.0850272927431
321,1436605485915,15.2377870089746
322,1436605486679,44.0799134595276
323,1436605487403,52.6163526881677
324,1436605488148,37.3324081031177
325,1436605488848,58.2168452810259
326,1436605489505,57.2825276436399
327,1436605490271,54.8520031761177
328,1436605491031,41.5380374167652
329,1436605491778,40.9155063512783
330,1436605492497,33.0058089758536
331,1436605493188,18.5168572302586
332,1436605493862,13.3089152634775
333,1436605494617,7.90160398508273
334,1436605495392,30.4687121766537
335,1436605496113,30.6616082901665
336,1436605496860,16.5541882650985
337,1436605497627,34.536826665968
338,1436605498351,46.0133776253646
339,1436605499077,47.2812764767329
340,1436605499814,56.2355538704147
341,1436605500550,12.7577119184458
342,1436605501262,44.1869066584394
343,1436605502010,22.263122291956
344,1436605502755,21.2002548344037
345,1436605503491,11.8484761982993
346,1436605504213,35.2002365531002
347,1436605505047,12.0870027894935
348,1436605505729,34.0611298705957
349,1436605506440,26.7591138221181
350,1436605507174,16.3610532185393
351,1436605507904,28.1534340658537
352,1436605508652,46.5791821055178
353,1436605509363,38.8726432467381
354,1436605510032,46.2530140817972
355,1436605510830,33.393133762315
356,1436605511569,25.2435619935563
357,1436605512304,21.0226532566111
358,1436605513041,30.7037208916313
359,1436605513786,3.2750868759805
360,1436605514521,4.63424736885454
361,1436605515264,23.4125914304774
362,1436605516055,58.3514739829137
363,1436605516798,42.4091705942868
364,1436605517502,10.7535155990793
365,1436605518225,60.4524069956031
366,1436605518957,53.4506715238361
367,1436605519712,41.0420778201895
368,1436605520452,26.9688485995236
369,1436605521170,35.4534709641875
370,1436605521887,3.13509636885832
371,1436605522657,4.89330482001484
372,1436605523388,33.8700043092444
373,1436605524098,8.17312347796466
374,1436605524839,4.20745792520912
375,1436605525577,2.90345891786202
376,1436605526297,4.79732716237947
377,1436605527037,39.5721443824468
378,1436605527804,38.2171998375071
379,1436605528570,29.317134076636
380,1436605529291,34.2182000682553
381,1436605529947,38.9828844009476
382,1436605530697,43.8324619608599
383,1436605531407,43.2071824474077
384,1436605532146,31.3902244159481
385,1436605532867,20.1141643117217
386,1436605533604,43.17116690765
387,1436605534315,32.1646570073222
388,1436605535071,38.5133360164407
389,1436605535734,6.92345967016257
390,1436605536472,41.2897106933083
391,1436605537220,41.9003398732876
392,1436605537955,52.8956331604071
393,1436605538696,11.7593403057545
394,1436605539442,9.0115748323474
395,1436605540154,13.6942557044514
396,1436605540890,12.8804355703936
397,1436605541656,9.70943018258702
398,1436605542389,63.5268961823464
399,1436605543123,42.6471416223348
400,1436605543858,36.5880074774814
401,1436605544629,12.8746932488802
402,1436605545427,45.4416217743318
403,1436605546105,37.651160289804
404,1436605546836,44.3330029448571
405,1436605547593,36.6361565296355
406,1436605548318,45.5103430627532
407,1436605549080,42.0614312394973
408,1436605549780,43.6785589420042
409,1436605550497,34.0399428485708
410,1436605551227,46.7298409096593
411,1436605551928,29.5580100825419
412,1436605552577,30.1481807671026
413,1436605553324,37.3031080696522
414,1436605554059,60.7561838309348
415,1436605554780,36.0788996602603
416,1436605555574,40.9873472541165
417,1436605556287,52.4541299739853
418,1436605557043,28.8296287757816
419,1436605557779,52.8113536183421
420,1436605558513,43.8027728241194
421,1436605559249,52.9566443961293
422,1436605560006,50.2592268404956
423,1436605560811,55.0885339281533
424,1436605561545,59.1534985529888
425,1436605562265,42.0311539588582
426,1436605563009,30.6074914621477
427,1436605563760,37.3428959924876
428,1436605564494,32.3262170658806
429,1436605565263,36.1535381744105
430,1436605566027,29.3446562371107
431,1436605566768,18.7045295410335
432,1436605567535,15.0029220950517
433,1436605568117,31.9915365134737
434,1436605568680,28.307551821384
435,1436605569363,44.7443680860665
436,1436605570085,23.6175812058435
437,1436605570853,56.1946525098378
438,1436605571612,45.5234580217348
439,1436605572334,9.65168668956465
440,1436605572983,4.05042362237861
441,1436605573702,46.723132122572
442,1436605574417,1.98626848884563
443,1436605575135,1.43488057469135
444,1436605575863,10.8926678287344
445,1436605576691,8.24777266904345
446,1436605577404,1.52728452742625
447,1436605578080,12.7745491659241
448,1436605578820,37.0482614350099
449,1436605579589,4.97504977453044
450,1436605580363,1.39209285448032
451,1436605581082,12.5449869045675
452,1436605581815,39.0572183059255
453,1436605582549,21.9572357217086
454,1436605583280,33.1694975922677
455,1436605583969,27.1102352252017
456,1436605584738,15.7275310439086
457,1436605585494,42.4944491156862
458,1436605586218,45.2076392135617
459,1436605586954,14.4114571029831
460,1436605587699,44.5528235784316
461,1436605588407,37.3997297577819
462,1436605589026,31.4871350838514
463,1436605590370,10.1793517876591
464,1436605591039,27.0866712798153
465,1436605591765,19.8774593500684
466,1436605592518,19.3602529810736
467,1436605593232,19.5606016702656
468,1436605593979,23.2267955376557
469,1436605594764,25.2920838045729
470,1436605595478,47.3935522174898
471,1436605596220,38.7528887950454
472,1436605596942,32.0506920774985
473,1436605597690,41.0047861357829
474,1436605598407,37.5365272076378
475,1436605599126,45.0032036343153
476,1436605599859,44.6023922250945
477,1436605600594,42.6432239081576
478,1436605601328,58.7649999042745
479,1436605602058,50.65047903396
480,1436605602793,51.8428400904753
481,1436605603511,54.2585411496007
482,1436605605279,53.9101188598168
483,1436605605936,45.2408738690091
484,1436605606697,52.9041961451177
485,1436605607429,40.7121809972251
486,1436605608141,40.0467047598379
487,1436605608938,40.5598653165677
488,1436605609583,39.3324457061779
489,1436605610296,34.983055847565
490,1436605610947,20.8920661243123
491,1436605611651,41.9095375124591
492,1436605612371,54.2375178113393
493,1436605613108,44.9269436131643
494,1436605613850,48.0249144368671
495,1436605614581,71.9799613447063
496,1436605615317,40.0339303718946
497,1436605616060,27.0483030398618
498,1436605616806,19.0861545555998
499,1436605617543,36.5768669542958
500,1436605618230,7.62118352243398
501,1436605618850,12.4283190120568
502,1436605619529,28.6010711275427
503,1436605620192,38.4828455134693
504,1436605620826,10.6764023212804
505,1436605621507,39.1931868533084
506,1436605622227,35.1579926367025
507,1436605622954,39.9625384739978
508,1436605623727,5.23843498137707
509,1436605624454,15.4024951919807
510,1436605625202,14.8102549616398
511,1436605625928,34.7049653714348
512,1436605626613,41.9935831644665
513,1436605628142,43.7699838168172
514,1436605628877,33.7180515027329
515,1436605629591,41.4710158051003
516,1436605630314,45.3720378595244
517,1436605631048,46.2832482981487
518,1436605631783,46.9722146723387
519,1436605632528,32.2199891470823
520,1436605633225,42.6197131397482
521,1436605633882,39.9869092782717
522,1436605634645,13.2297534168295
523,1436605635372,26.1593483895462
524,1436605636137,36.6002500705982
525,1436605636907,32.8700319963653
526,1436605637664,44.6453785440003
527,1436605638392,21.8235312872433
528,1436605639111,30.7973315676213
529,1436605639819,25.5324222514415
530,1436605641434,6.03814749531798
531,1436605642102,38.6606691988479
532,1436605642817,46.2780954194198
533,1436605643577,54.5376161007118
534,1436605644282,54.3369300443581
535,1436605645053,19.3218627916203
536,1436605645849,55.2009012008034
537,1436605646594,66.070577005168
538,1436605647331,42.7004427419742
539,1436605648069,37.6204676544918
540,1436605648813,23.609583450204
541,1436605649507,59.1669502265941
542,1436605650269,40.9966689939397
543,1436605651001,39.4997642448442
544,1436605651756,59.7470342928514
545,1436605652499,49.5633407799548
546,1436605653222,38.3921591139579
547,1436605653883,36.3279678382926
548,1436605654640,33.5241660376715
549,1436605655362,16.3108034776791
550,1436605656092,6.00403469922244
551,1436605656837,43.6548886531883
552,1436605657581,35.6260746699561
553,1436605658315,6.72096599475794
554,1436605659069,27.2369128801245
555,1436605659797,13.1149368811407
556,1436605660599,41.8737463657437
557,1436605661338,5.55736767965772
558,1436605662061,8.90471666681669
559,1436605662787,17.3356640922382
560,1436605663537,27.8226806689925
561,1436605664247,36.0074892164527
562,1436605665004,40.408299100212
563,1436605665820,33.7977289048093
564,1436605666565,38.9376259527217
565,1436605667294,37.23720674922
566,1436605668048,52.4656452844567
567,1436605668846,35.5708068972034
568,1436605669502,6.62026274058575
569,1436605670114,11.7130709901863
570,1436605670914,48.506116241522
571,1436605671660,54.0140370025334
572,1436605672381,46.7597751482574
573,1436605673113,53.5291018970358
574,1436605673794,41.8658041168209
575,1436605674517,56.2745218980018
