id,attr_time,attr_db
1,1436605249729,11.5518445968917
2,1436605250463,9.28212548068291
3,1436605251200,12.2966260961932
4,1436605251913,14.6507638195344
5,1436605252656,30.3214554011584
6,1436605253375,37.1713271799206
7,1436605254111,43.582405202838
8,1436605254856,40.6030063787085
9,1436605255592,40.5174363688643
10,1436605256325,45.4554158556274
11,1436605257079,55.7229229157206
12,1436605257737,41.9310831103442
13,1436605259220,46.4929510584241
14,1436605259940,35.3744567164624
15,1436605260698,43.5406620246491
16,1436605261422,36.1670992705644
17,1436605262162,42.9500244444977
18,1436605262887,42.2262218455344
19,1436605263638,34.6232957211795
20,1436605264382,23.184622892228
21,1436605265039,38.6388054960956
22,1436605265807,5.68946798096432
23,1436605266521,31.7213194830154
24,1436605267276,1.09263439246845
25,1436605267980,14.1947587955295
26,1436605268782,1.57727539715031
27,1436605269507,1.72102987548889
28,1436605270236,35.7931734458543
29,1436605270963,13.342514277455
30,1436605271722,21.3835068294588
31,1436605272415,23.6115132442922
32,1436605274057,6.27064904214232
33,1436605274726,38.3650734455097
34,1436605275460,11.4201289425048
35,1436605276198,15.1346802229479
36,1436605276936,44.2720534645918
37,1436605277683,38.6085184662476
38,1436605278422,30.1174325048369
39,1436605279132,5.7626362446788
40,1436605279910,39.4415959398458
41,1436605280651,33.0010039327762
42,1436605281315,34.8150382689349
43,1436605282662,42.6619281997024
44,1436605283403,15.596131247671
45,1436605284126,12.3332321692151
46,1436605284844,7.01358629536927
47,1436605285585,7.62118352243398
48,1436605286357,46.5742235885067
49,1436605287106,36.08438467361
50,1436605287774,29.0067840622349
51,1436605288380,10.4850555692178
52,1436605289061,27.3991254590016
53,1436605289793,48.071239652437
54,1436605290526,43.9085958417939
55,1436605291274,46.0367475121244
56,1436605292002,35.9561012841744
57,1436605292753,43.6823254260102
58,1436605293506,44.6939546954522
59,1436605294221,53.4748535822905
60,1436605294962,22.7379957351676
61,1436605295726,46.3898164702422
62,1436605296495,47.9282799847529
63,1436605297206,45.7494582736327
64,1436605297948,42.4470392159907
65,1436605298726,42.7449439728242
66,1436605299453,46.2584121091037
67,1436605300192,33.2435421364066
68,1436605300915,38.418483800875
69,1436605301656,38.9905018719064
70,1436605302378,35.9631193637594
71,1436605303106,40.5469927714039
72,1436605303844,34.2643039576588
73,1436605304737,38.7248455791929
74,1436605305396,38.1461031326074
75,1436605306104,33.4412189885261
76,1436605306747,36.3970585354375
77,1436605307416,29.3032799031257
78,1436605308165,31.7157540576601
79,1436605308913,33.0001290446169
80,1436605309680,37.044057139655
81,1436605310413,36.198936629361
82,1436605311150,11.8773686083992
83,1436605311866,36.0334400190221
84,1436605312604,40.3488983804811
85,1436605313342,47.8402572033617
86,1436605314097,44.8914509319729
87,1436605314833,49.0962205066882
88,1436605315555,36.6673038842432
89,1436605316307,35.9356364016306
90,1436605317060,31.4784513659742
91,1436605317817,23.0143796022085
92,1436605318543,27.3859359934192
93,1436605319237,45.8731099952639
94,1436605319903,47.4451757600184
95,1436605320665,46.9958350203705
96,1436605321449,38.7142888486108
97,1436605322129,54.8309531959517
98,1436605322841,43.1644304500913
99,1436605323581,35.9477427860117
100,1436605324307,41.7030813367667
101,1436605324996,9.12458419514597
102,1436605325665,14.8585982704362
103,1436605326392,35.9075061474761
104,1436605327109,13.6978090947749
105,1436605327847,20.7115602327551
106,1436605328581,29.4115567906488
107,1436605329271,21.6756364105503
108,1436605329951,39.4584503207355
109,1436605330721,36.2738836205132
110,1436605331535,36.9710918160833
111,1436605332265,34.214278094968
112,1436605332981,39.250544958558
113,1436605333793,39.427099382756
114,1436605334561,45.136022192688
115,1436605335300,11.7790167200443
116,1436605336060,45.0863676415838
117,1436605336813,42.0599090817615
118,1436605337559,3.73073832834635
119,1436605338300,23.4201385333116
120,1436605339060,46.2574898234242
121,1436605339814,28.0662384270489
122,1436605340559,2.6144377738781
123,1436605341278,28.6583751809297
124,1436605342051,37.9862983904196
125,1436605342796,41.151792810316
126,1436605343541,21.2403363881391
127,1436605344249,42.3291730171771
128,1436605344958,35.5183066515209
129,1436605345697,37.0991387653352
130,1436605346424,47.8197523875907
131,1436605347184,32.502349920689
132,1436605347892,16.4304620790499
133,1436605348626,25.9329587080711
134,1436605349329,37.9422642155931
135,1436605350008,31.3384888928043
136,1436605350766,35.8182654570088
137,1436605351509,26.8053477559428
138,1436605352225,10.6744776085546
139,1436605352943,23.7248669843617
140,1436605353675,19.9495448158457
141,1436605354413,37.1431692269614
142,1436605355157,44.6079278022198
143,1436605355881,43.1334531631509
144,1436605356678,44.048828841422
145,1436605357407,35.6191336400161
146,1436605358140,43.8111675469954
147,1436605358868,34.7108203639332
148,1436605359615,34.8423640763629
149,1436605360351,30.1474229080032
150,1436605361094,40.8212870401212
151,1436605361814,19.8345857303862
152,1436605362553,37.2145402895846
153,1436605363275,48.2441750656191
154,1436605364017,32.3983450962104
155,1436605364780,6.36442326837632
156,1436605365466,9.46749440560646
157,1436605366195,32.3527627881564
158,1436605366903,10.5948955307082
159,1436605367663,38.8961311752489
160,1436605368406,39.1366622701688
161,1436605369117,32.89456072552
162,1436605369845,31.8433264856635
163,1436605370586,44.6738683633491
164,1436605371333,53.1343415520898
165,1436605372008,36.8837133496157
166,1436605372673,52.474341037918
167,1436605373394,49.5439533078651
168,1436605374123,46.350032947371
169,1436605374854,48.2520592285577
170,1436605375597,52.0391437292
171,1436605376317,34.2485464608402
172,1436605377032,44.2145080572152
173,1436605377797,42.109324020482
174,1436605378534,43.0976846185848
175,1436605379256,41.3426919803844
176,1436605379979,32.0547256697277
177,1436605380735,46.0590096271304
178,1436605381459,39.6052630343958
179,1436605382198,40.5170237238593
180,1436605382918,42.2698049165226
181,1436605383647,43.365458966059
182,1436605384359,43.4705407473133
183,1436605385100,12.5917741839952
184,1436605385817,8.67969531580357
185,1436605386431,47.2499200639556
186,1436605387166,38.0169671037386
187,1436605387891,33.5989985636616
188,1436605388636,28.7578258450209
189,1436605389355,41.335708027831
190,1436605390082,46.3472940507735
191,1436605390755,41.8031435563026
192,1436605391475,34.8279789488675
193,1436605392210,40.5523385293539
194,1436605392944,16.0467624267594
195,1436605393685,46.5972431387766
196,1436605394426,11.9869622994367
197,1436605395145,7.35095588559829
198,1436605395881,9.99337787686698
199,1436605396631,26.1741324026487
200,1436605397362,5.33865789684371
201,1436605398106,38.4962691355313
202,1436605398844,45.8785584699474
203,1436605399633,32.4274108058396
204,1436605400370,28.1191888055087
205,1436605401100,18.6147885770248
206,1436605401851,35.3439705733765
207,1436605402602,41.398787285968
208,1436605403300,28.1822801419407
209,1436605403975,11.6921495093634
210,1436605404760,17.5879493594101
211,1436605405471,33.4731350249596
212,1436605406185,6.20955332557223
213,1436605406877,9.97901267328094
214,1436605407611,18.741994612453
215,1436605408346,17.2059308044288
216,1436605409073,22.2827617716594
217,1436605409816,35.3495651755414
218,1436605410463,38.9373038136517
219,1436605411135,34.416907092585
220,1436605411875,25.6701741275634
221,1436605412631,30.9513079712207
222,1436605413363,13.6370035808802
223,1436605414083,8.90977486812877
224,1436605414839,39.4809822380929
225,1436605415570,21.5637692106028
226,1436605416270,34.1692680862623
227,1436605416991,30.1904647611966
228,1436605417741,32.6603867528349
229,1436605418479,19.3181551995249
230,1436605419197,9.77905052520939
231,1436605419923,14.4199919926508
232,1436605420649,6.86093950073051
233,1436605421431,30.4200885892213
234,1436605422164,7.89646549397028
235,1436605422888,10.2953359757846
236,1436605423641,8.16712346704261
237,1436605424361,10.2631997190807
238,1436605425082,41.9253097494908
239,1436605425824,35.9678040428607
240,1436605426563,13.9811514941691
241,1436605427215,38.4086143664762
242,1436605427923,42.9025932514947
243,1436605428665,51.1034926600062
244,1436605429377,41.1711832036027
245,1436605430110,37.8812280514646
246,1436605430836,33.5057627440647
247,1436605431525,38.8591230308537
248,1436605432283,10.9743532932445
249,1436605433010,23.703386738682
250,1436605433784,6.46598594637845
251,1436605434503,16.1595339273633
252,1436605435231,42.7158388733797
253,1436605435942,17.6830763044288
254,1436605436680,32.0729379046304
255,1436605437403,18.0430101340856
256,1436605438151,24.4774555732602
257,1436605438876,53.1314267463267
258,1436605439637,32.3321139721353
259,1436605440344,46.7276563410918
260,1436605441078,47.1999506866991
261,1436605441815,23.902760037665
262,1436605442566,47.2224314485677
263,1436605443292,35.8384346272111
264,1436605444047,41.105326079567
265,1436605444797,5.57123988384323
266,1436605445510,37.88743883987
267,1436605446249,10.4702668193878
268,1436605446918,17.9105418455037
269,1436605447481,39.9239203698186
270,1436605448151,40.4130667548374
271,1436605448885,44.246313660057
272,1436605449603,43.1838972858045
273,1436605450317,25.7498942180704
274,1436605451040,27.734870684282
275,1436605451665,39.5739245084807
276,1436605452982,34.7196753083137
277,1436605453750,15.1022661713012
278,1436605454463,44.138967405985
279,1436605455207,48.129601153977
280,1436605455925,39.046979443942
281,1436605456643,31.1767769212109
282,1436605457370,21.0528730909506
283,1436605458070,44.1126916247478
284,1436605458796,31.6797577338743
285,1436605459509,41.8575670950093
286,1436605460246,23.6783644771098
287,1436605460979,38.0297729500202
288,1436605461718,47.8765660618218
289,1436605462388,34.0029137845374
290,1436605463098,39.284620307525
291,1436605463838,55.4534672037982
292,1436605464557,52.134121835245
293,1436605465271,47.8393106665583
294,1436605466835,30.3996776806589
295,1436605467522,24.865142354537
296,1436605468185,20.3416489484782
297,1436605468906,34.4465315363767
298,1436605469641,30.4540795873293
299,1436605470354,31.0766156564275
300,1436605471110,36.8025140606187
301,1436605471792,31.4652374848322
302,1436605472512,41.7383498573176
303,1436605473258,8.71994723395032
304,1436605473997,30.3243403046812
305,1436605474727,26.0635544451455
306,1436605475449,14.3685748608296
307,1436605476172,11.1958113142176
308,1436605476880,11.0185161716806
309,1436605477635,17.8230660743003
310,1436605478361,30.4314978723357
311,1436605479104,34.307478431967
312,1436605479825,22.1651828297639
313,1436605480576,41.4943204909524
314,1436605481358,34.1205383596042
315,1436605482090,42.8062027166003
316,1436605482821,47.9160130559002
317,1436605483562,35.9232578774085
318,1436605484302,41.2419004759323
319,1436605485061,32.967198964026
320,1436605485835,8.39847608784512
321,1436605486615,46.7991512055698
322,1436605487315,42.8128334134833
323,1436605487990,27.8241775314189
324,1436605488703,40.1380751547658
325,1436605490262,39.2000553645028
326,1436605490978,49.3712400500905
327,1436605491757,31.9906077710099
328,1436605492481,24.2016658209188
329,1436605493231,16.9843141573341
330,1436605493971,7.80718398399323
331,1436605494710,6.89653395892618
332,1436605495388,30.9988249279132
333,1436605496115,28.1657126966567
334,1436605496835,14.8418489423453
335,1436605497570,20.4809234690098
336,1436605498298,42.0873304402469
337,1436605499045,48.2142903971326
338,1436605499734,44.762249660993
339,1436605500392,16.8898235028612
340,1436605501046,46.2340819906185
341,1436605502466,35.3864218688612
342,1436605503089,36.9611111050456
343,1436605503813,6.3424336626112
344,1436605504539,19.3509414612145
345,1436605505272,4.77654751218631
346,1436605506005,29.6850189757762
347,1436605506745,20.8139489838337
348,1436605507418,21.7291813529386
349,1436605508004,29.0684001740889
350,1436605508700,39.7749172837704
351,1436605509425,33.4548461015556
352,1436605510146,33.5369224062611
353,1436605510905,29.829347710776
354,1436605511639,29.0958108803636
355,1436605512331,20.9291480242499
356,1436605513074,21.1140406552301
357,1436605513795,9.93810602492912
358,1436605514525,9.78441227124625
359,1436605515241,27.5454522223089
360,1436605516033,51.3941272556151
361,1436605516762,38.5306999316822
362,1436605517558,13.2685804125075
363,1436605518273,50.2088929649656
364,1436605519018,39.1925227118579
365,1436605519779,34.474871575041
366,1436605520542,13.458550850118
367,1436605521266,19.1554448638128
368,1436605521982,3.18608412709926
369,1436605522735,7.19207802082931
370,1436605523457,16.7246385683823
371,1436605524177,5.77519125065014
372,1436605524890,2.6144377738781
373,1436605525648,3.25953817701867
374,1436605526373,1.7451238982563
375,1436605527101,27.4420263968516
376,1436605527832,24.5232071750442
377,1436605528574,5.8915738266515
378,1436605529295,14.3631702900345
379,1436605530046,12.8408683946853
380,1436605530794,35.2067736415713
381,1436605531563,33.298083608963
382,1436605532245,32.6209435476652
383,1436605532966,6.86444469408691
384,1436605533708,42.6201738742273
385,1436605534432,28.7119239420416
386,1436605535152,27.8452084619134
387,1436605535859,7.24579043615786
388,1436605536652,22.0567680516231
389,1436605537371,26.8333846230404
390,1436605538093,27.4733923860215
391,1436605538822,5.99612306401033
392,1436605539559,19.8223542508549
393,1436605540283,17.0775124794399
394,1436605541068,10.8692235895816
395,1436605541785,31.712777855386
396,1436605542519,43.4422558697217
397,1436605543223,33.7347069677152
398,1436605543947,33.377279987756
399,1436605544690,13.7460043912753
400,1436605545368,44.6820128355192
401,1436605546135,30.7544720300991
402,1436605546880,34.3171759199422
403,1436605547617,40.0041610016812
404,1436605548280,40.7953038470654
405,1436605549013,43.0981212444771
406,1436605549764,43.6012032755063
407,1436605550498,43.4106257852518
408,1436605551230,44.0663364746365
409,1436605551953,34.0266593959271
410,1436605552693,21.6746620128687
411,1436605553426,36.2261039800462
412,1436605554156,48.7487967931531
413,1436605554881,40.5286906272042
414,1436605555624,46.8215181015548
415,1436605556332,47.0344735466337
416,1436605557082,32.158182110321
417,1436605557819,47.5772985692557
418,1436605558557,42.4256093394502
419,1436605559288,42.0835618023595
420,1436605560037,43.420369435155
421,1436605560773,46.4209282696432
422,1436605561549,54.1569403442822
423,1436605562279,38.2998898786054
424,1436605563005,31.9164387744229
425,1436605563754,29.6467896096689
426,1436605564474,37.7954991759796
427,1436605565219,31.5627691622471
428,1436605565934,33.0018972339195
429,1436605566760,14.9098455128952
430,1436605567471,6.49443419143163
431,1436605568193,32.8993403518554
432,1436605568902,9.40914983439009
433,1436605569677,34.1804986146875
434,1436605570389,17.2313259546806
435,1436605571182,41.0971070550484
436,1436605571901,44.7771612240239
437,1436605572646,5.89479619346199
438,1436605573386,35.3705995423653
439,1436605574098,2.37481182821582
440,1436605574827,1.11314417682225
441,1436605575561,5.91308380341152
442,1436605576253,3.52958758509161
443,1436605576927,9.11318220911969
444,1436605577646,3.28403371588371
445,1436605578378,1.6062477043261
446,1436605579132,21.7174497876572
447,1436605579861,4.79732716237947
448,1436605580662,5.54765438773725
449,1436605581415,38.8457439292195
450,1436605582135,33.7642994548687
451,1436605582861,36.75053999166
452,1436605583598,30.824484939042
453,1436605584313,34.4787437693731
454,1436605585048,6.91243556709868
455,1436605585775,44.302503507927
456,1436605586518,23.9627742721738
457,1436605587251,32.8978786889215
458,1436605587975,38.3361219334376
459,1436605588642,17.4749403905891
460,1436605589358,28.6545954681638
461,1436605590082,15.4772904073993
462,1436605590844,7.77758978283227
463,1436605591560,39.269441994044
464,1436605592256,15.6179850242784
465,1436605592936,14.0354246131473
466,1436605593707,26.2183429183339
467,1436605594429,33.3960495926115
468,1436605595142,35.1656908701625
469,1436605595884,35.2295412052108
470,1436605596602,36.4769823500759
471,1436605597326,37.7315134538116
472,1436605598052,46.8930287585256
473,1436605598826,32.9550477400044
474,1436605599551,39.2414925381431
475,1436605600273,57.8303727594336
476,1436605601001,52.0861773742884
477,1436605601765,45.9594702133832
478,1436605602501,53.3482286305158
479,1436605603223,51.3795518809827
480,1436605603956,49.1057139832061
481,1436605604697,54.3019846455605
482,1436605605412,53.3377860021552
483,1436605606123,51.140518924249
484,1436605606844,46.8052968734611
485,1436605607623,41.0607691652197
486,1436605608373,36.4050173211021
487,1436605609100,39.6109760330125
488,1436605609833,42.1175929627263
489,1436605610578,32.6512932081402
490,1436605611371,37.786909055891
491,1436605612096,26.0179531448775
492,1436605612806,39.2063707836828
493,1436605613540,40.883861725514
494,1436605614266,18.5656148109388
495,1436605615019,60.8753209788596
496,1436605615763,25.7672316598836
497,1436605616509,14.5881770871345
498,1436605617225,35.3680436365186
499,1436605617930,24.3893676332924
500,1436605618706,7.58609783115013
501,1436605619427,7.79257356904611
502,1436605620123,38.32076142736
503,1436605620846,6.59112549776293
504,1436605621591,22.1276560566859
505,1436605622310,22.7536069386496
506,1436605623037,32.6900140725517
507,1436605623783,9.55146926471873
508,1436605624532,8.18520703965408
509,1436605625257,17.1111350310931
510,1436605626004,36.699743075477
511,1436605626745,45.8546669943672
512,1436605627469,44.1797009147918
513,1436605628186,40.3444982122795
514,1436605628936,29.483764840215
515,1436605629697,44.5232901967766
516,1436605630400,45.4981088849629
517,1436605631129,36.0715189109291
518,1436605631886,36.0594358318116
519,1436605632620,40.5544694272837
520,1436605633343,38.0540513248396
521,1436605634085,31.6724648717065
522,1436605634845,12.412834413615
523,1436605635572,29.6605168180951
524,1436605636285,40.5938382726759
525,1436605636944,32.3229320996935
526,1436605637673,33.988698367335
527,1436605638430,15.3536866054774
528,1436605639160,22.1081558446178
529,1436605639883,28.5944039383497
530,1436605640632,16.0633435438646
531,1436605641346,11.0103162157553
532,1436605642077,9.09484680252744
533,1436605642806,44.5555243148637
534,1436605643546,20.2730873343896
535,1436605644279,41.8208948199386
536,1436605644995,9.11074545337444
537,1436605645764,44.8228464613379
538,1436605646502,53.5849520681378
539,1436605647237,44.2140883260152
540,1436605647950,34.277745523301
541,1436605648724,38.5086602655049
542,1436605649437,45.5039110602738
543,1436605650151,44.2532468866068
544,1436605650870,17.2134904903434
545,1436605651612,46.4951608343551
546,1436605652330,43.9395056901813
547,1436605653045,36.829370364772
548,1436605653786,39.174294844053
549,1436605654497,29.5854920749633
550,1436605655236,25.0594039077428
551,1436605655930,1.41016963444521
552,1436605657527,28.5946114320527
553,1436605658244,3.68332415841743
554,1436605658970,21.5483199452752
555,1436605659746,9.62794889185331
556,1436605660467,30.5446077471176
557,1436605661163,5.34280885971271
558,1436605661874,1.07349544317932
559,1436605662621,30.1507639347524
560,1436605663356,39.9594994512873
561,1436605664095,40.9256635251934
562,1436605664825,51.3657953277563
563,1436605665563,35.0763900341329
564,1436605666282,36.1985294660711
565,1436605666955,39.5846542423279
566,1436605667706,45.0408856376232
567,1436605668417,38.9152573405984
568,1436605669063,13.389500315677
569,1436605669731,30.3491792984206
570,1436605670443,27.5120286970374
571,1436605671137,40.6165542924839
572,1436605671875,44.7989109379907
573,1436605672577,35.4282503366275
574,1436605673243,41.2286647165977
575,1436605673921,46.3311367231767
576,1436605675289,51.8873323588494
