id,attr_time,attr_db
1,1436605249796,5.99204698031137
2,1436605250519,2.59099406291709
3,1436605251229,9.18550489356461
4,1436605251945,7.49129864032859
5,1436605252620,18.5289987938593
6,1436605253297,27.7899810903404
7,1436605253999,40.1472997156628
8,1436605254733,53.1203610743931
9,1436605255438,40.460943757674
10,1436605256171,44.3915460164938
11,1436605256899,36.4747489091278
12,1436605257597,36.6597173629313
13,1436605258320,29.0641431077227
14,1436605259036,35.7361763199589
15,1436605259714,35.0071402937919
16,1436605260431,32.1008638234809
17,1436605261182,38.3801839219568
18,1436605261909,30.0213895974446
19,1436605262633,14.8584798715589
20,1436605263358,22.1031385127576
21,1436605264096,1.43488057469135
22,1436605264810,34.6681390402378
23,1436605265505,14.7745079355828
24,1436605266226,41.3519196600373
25,1436605266950,7.38572759618174
26,1436605267686,0.202959149761108
27,1436605268345,9.37646391466938
28,1436605269083,0.851715999867079
29,1436605269843,21.8544429286604
30,1436605270587,31.9144871811516
31,1436605271324,42.4419259171237
32,1436605272061,16.4221743752491
33,1436605272807,42.1164180453134
34,1436605273605,9.79963732271339
35,1436605274337,32.9507651321239
36,1436605275073,30.2085198078348
37,1436605275838,8.0817165680905
38,1436605276578,15.8796223743399
39,1436605277284,20.1400434959009
40,1436605278018,21.8248087834338
41,1436605278780,4.99024205089528
42,1436605279484,32.5729575593001
43,1436605280172,44.5281424342865
44,1436605280913,35.7765141722927
45,1436605281636,22.2171771349654
46,1436605282364,25.9289425466757
47,1436605283105,44.2329511160881
48,1436605283809,21.8756311896824
49,1436605284470,38.5371248006928
50,1436605285162,11.1483413710884
51,1436605285897,6.67528894941451
52,1436605286627,34.4753650767996
53,1436605287359,31.1823515807974
54,1436605288067,13.294740001844
55,1436605288731,9.45689974397882
56,1436605289502,46.5466937542635
57,1436605290244,50.8681020089603
58,1436605290903,49.3907152940774
59,1436605291644,47.3484696192568
60,1436605292379,40.6308465362144
61,1436605293128,41.263391509375
62,1436605293905,39.6533520687043
63,1436605294665,34.5433322247877
64,1436605295343,55.1820325173485
65,1436605296078,53.3868084647703
66,1436605296815,56.5130199524132
67,1436605297528,40.9958876364372
68,1436605298255,49.4918837596178
69,1436605299022,42.8478498530074
70,1436605299757,29.9546478946181
71,1436605300448,36.7952481179942
72,1436605301177,35.2029853779366
73,1436605301822,40.2835549183451
74,1436605302569,23.9302574127585
75,1436605303289,38.6677846445047
76,1436605304056,43.9473365082192
77,1436605304736,37.8656769289207
78,1436605305491,33.6069416185044
79,1436605306206,28.4896187560428
80,1436605306919,34.1949778819899
81,1436605307639,33.6477893492342
82,1436605308287,29.7002249751218
83,1436605310047,27.3249650515208
84,1436605310683,37.2235972496605
85,1436605311401,42.7789207971079
86,1436605312131,30.7532646915864
87,1436605312881,37.2099611858611
88,1436605313600,41.1642039341166
89,1436605314341,50.2535037684969
90,1436605315084,34.7186580761531
91,1436605315814,34.9549841154623
92,1436605316558,28.1643551572301
93,1436605317273,15.268278206911
94,1436605318015,23.4371937211014
95,1436605318698,37.6923532695521
96,1436605320166,44.0689792951278
97,1436605320888,46.3386004740931
98,1436605321625,43.2133720516533
99,1436605322348,42.074115509088
100,1436605323095,38.562519293655
101,1436605323830,22.0580097611478
102,1436605324629,17.5937843473337
103,1436605325287,36.8489916511126
104,1436605325992,26.0746974121835
105,1436605326724,8.42572901359443
106,1436605327463,22.6709029182409
107,1436605328199,18.2132714071438
108,1436605328916,25.3229966880762
109,1436605329590,18.4086340376305
110,1436605330326,42.1148839373405
111,1436605331069,35.3976826598735
112,1436605331817,39.5329621471035
113,1436605332538,39.6792887368695
114,1436605333234,39.7196160622459
115,1436605335037,27.7477724932179
116,1436605335702,18.549019337582
117,1436605336418,36.9525044803202
118,1436605337143,35.5061451011406
119,1436605337873,39.7651058338879
120,1436605338577,31.8564861403907
121,1436605339298,33.8596574707212
122,1436605340023,1.6086041583932
123,1436605340797,29.1812154807919
124,1436605341512,36.1288960636511
125,1436605342219,22.6044072336292
126,1436605344024,30.2587502050274
127,1436605344667,30.4621545113622
128,1436605345353,9.40296550544385
129,1436605346086,38.4564592280939
130,1436605346824,24.1568633507619
131,1436605347531,16.6861190966106
132,1436605348231,7.21686328552503
133,1436605348892,2.02198844174209
134,1436605349536,37.9716717685371
135,1436605350257,19.7584359272919
136,1436605350955,31.5536015025864
137,1436605352413,5.07921680848622
138,1436605353137,29.2355376130172
139,1436605353875,26.3001525272972
140,1436605354595,30.2445825333426
141,1436605355323,29.1617694805278
142,1436605356061,39.8761442844831
143,1436605356801,42.0389190674413
144,1436605357511,35.4388268242793
145,1436605358239,35.0739772390824
146,1436605358960,13.6121892345527
147,1436605359680,34.5907601071033
148,1436605360421,18.480067597859
149,1436605361137,34.0722371190357
150,1436605361861,19.4209636998205
151,1436605362571,32.4140362095233
152,1436605363283,33.7066550376495
153,1436605363999,65.1299983533018
154,1436605364756,46.4780897371332
155,1436605365413,23.2956693694436
156,1436605366138,36.3145267552932
157,1436605366880,40.0629659598701
158,1436605367608,44.7395753697709
159,1436605368351,38.6096933549063
160,1436605369040,44.1305068720732
161,1436605369643,40.7647757469357
162,1436605370360,40.8624675509449
163,1436605371120,39.1119110908784
164,1436605371866,34.7426543220061
165,1436605372631,53.2289949652855
166,1436605373339,37.4685722085319
167,1436605374091,45.5155339426641
168,1436605374830,40.1490462762261
169,1436605375566,50.1775239109951
170,1436605376303,38.6239745869514
171,1436605377056,32.7707084337332
172,1436605377784,38.4326068383765
173,1436605378517,42.5092392497958
174,1436605379240,28.5296090116209
175,1436605379956,32.8780017518169
176,1436605380669,17.6871079309919
177,1436605381344,7.48788471097814
178,1436605382085,12.8564616759694
179,1436605382833,34.8652369834511
180,1436605383548,29.9847237030664
181,1436605384274,42.2761566562293
182,1436605385041,19.208727305047
183,1436605385670,7.66786000817685
184,1436605386352,37.5889195915783
185,1436605387080,33.4653704262801
186,1436605387822,35.2679591524082
187,1436605388582,36.2610130566384
188,1436605389325,39.1096841677411
189,1436605389978,44.177471378713
190,1436605390686,42.6676001645527
191,1436605391392,36.4175066964552
192,1436605392099,42.1943420322032
193,1436605392844,30.4134989659657
194,1436605393567,36.4321664571382
195,1436605394285,9.5132308354735
196,1436605395105,9.79808827017126
197,1436605395859,12.7982153146599
198,1436605396583,33.4084993032226
199,1436605397302,6.46011152601961
200,1436605398041,25.8194880737527
201,1436605398792,36.5348785724674
202,1436605399497,28.763003080743
203,1436605400260,25.4722988241327
204,1436605400964,8.81319658981979
205,1436605401735,8.16198390697294
206,1436605402439,36.3453975635426
207,1436605403157,25.0290246068807
208,1436605403884,10.7526193271037
209,1436605404561,7.31837601469433
210,1436605405201,25.3047943986275
211,1436605405872,11.3366653045519
212,1436605406591,13.869771092134
213,1436605407300,35.0826908959824
214,1436605408014,14.0285394176762
215,1436605408763,6.16521340774219
216,1436605409488,31.9988742236976
217,1436605410157,32.6912125059276
218,1436605410869,27.9005206193464
219,1436605411594,37.7864271547102
220,1436605412331,34.4008087933577
221,1436605413068,30.9438382197948
222,1436605413812,32.5418259158514
223,1436605414527,29.2267613568555
224,1436605415299,14.2877849092073
225,1436605416023,15.3768922745882
226,1436605416763,18.6894120637829
227,1436605417483,23.9215905565479
228,1436605418208,7.86082997608421
229,1436605418937,2.87303545545136
230,1436605419726,1.93782218590683
231,1436605420478,6.04484721428794
232,1436605421200,6.80037935882989
233,1436605421939,12.3231934971904
234,1436605422697,13.8959011282376
235,1436605423406,11.1347301529226
236,1436605424133,11.3804825921789
237,1436605424861,30.1058811289624
238,1436605425556,22.3161296325739
239,1436605426217,7.99433967060888
240,1436605426966,29.5964247826242
241,1436605427731,52.573991323643
242,1436605428452,43.1035611172341
243,1436605429165,33.4271064694262
244,1436605429945,23.2906430340254
245,1436605430676,39.8716932119221
246,1436605431430,38.6754380484754
247,1436605432145,36.4426076461987
248,1436605432881,27.6565227095878
249,1436605433608,9.59263951937131
250,1436605434336,1.37829477431406
251,1436605435081,30.6935455016773
252,1436605435815,40.7967160133347
253,1436605436541,34.2595775501483
254,1436605437259,38.7260213862551
255,1436605438001,22.4667328041301
256,1436605438741,57.6669327340408
257,1436605439458,39.4669182790886
258,1436605440195,34.3276968910095
259,1436605440921,55.0205964622242
260,1436605441675,47.0888249525809
261,1436605442379,44.8494209878658
262,1436605443127,38.5697108151021
263,1436605443839,50.61927128725
264,1436605444552,6.39364147877815
265,1436605445265,32.9962745754324
266,1436605445921,41.8643156910227
267,1436605446616,11.3135400788489
268,1436605447336,22.9393263727029
269,1436605448063,41.9824604317223
270,1436605448811,32.4173503294964
271,1436605449521,27.3037094756936
272,1436605450324,31.815243666329
273,1436605451031,36.9605639457985
274,1436605451778,35.4454945512779
275,1436605452491,27.6747494821629
276,1436605453230,18.5138604587961
277,1436605453964,9.12794299345468
278,1436605454707,44.5446707722748
279,1436605455536,37.6973562604349
280,1436605456149,38.0789408832121
281,1436605456803,34.0829113187616
282,1436605457532,40.5050669851406
283,1436605458246,43.0749327959394
284,1436605458965,50.6141194092088
285,1436605459712,47.1977611998405
286,1436605460462,49.9785699407698
287,1436605461188,44.1158740141266
288,1436605461899,51.8482869572271
289,1436605462639,42.3891464088863
290,1436605463363,15.9823397436497
291,1436605464086,54.8619333712875
292,1436605464830,49.2275673665213
293,1436605465562,16.1138066952668
294,1436605466233,21.7500275790945
295,1436605466953,45.5672651491683
296,1436605467712,8.19966897349439
297,1436605468426,29.485737605435
298,1436605469146,12.8798197135016
299,1436605469855,31.1002112569633
300,1436605470605,39.4043682197075
301,1436605471347,36.9873447533674
302,1436605472085,41.6645005079376
303,1436605472831,12.4029666632057
304,1436605473567,33.9805483604842
305,1436605474289,15.6020319666125
306,1436605475072,37.5449522548334
307,1436605475804,15.2825201823139
308,1436605476535,11.5063784228723
309,1436605477265,11.5666143760136
310,1436605477982,10.2429974528324
311,1436605478714,43.3980998294271
312,1436605479424,27.7070998750387
313,1436605480153,32.0515431676468
314,1436605480914,40.6898756704412
315,1436605481592,39.4903128756104
316,1436605482220,37.7113937542623
317,1436605482901,23.2515774058608
318,1436605483639,35.6508242025427
319,1436605484378,38.9684671032288
320,1436605485191,30.1069372402404
321,1436605485942,5.71247697359297
322,1436605486583,52.1729300595757
323,1436605487292,51.7232808331964
324,1436605487946,37.9739111294475
325,1436605488740,58.0366812177941
326,1436605489453,36.9798316592235
327,1436605490140,43.480943166159
328,1436605490762,24.7114235817303
329,1436605491464,28.4147642871587
330,1436605492193,11.7417700215146
331,1436605492868,23.3981524694237
332,1436605493514,29.499434229986
333,1436605494198,12.9625928376272
334,1436605494922,5.53953952151001
335,1436605495712,25.0675413115052
336,1436605496448,13.3087116887343
337,1436605497146,17.8492703473361
338,1436605497876,30.5936759606635
339,1436605498629,16.9632456396407
340,1436605499350,35.9772281243309
341,1436605500071,42.1650472142847
342,1436605500864,38.2579332382231
343,1436605501601,30.9475197733523
344,1436605502319,43.3607699125928
345,1436605503045,18.0774120220177
346,1436605503842,3.33350951521072
347,1436605504550,29.4528802660763
348,1436605505302,4.50415852415986
349,1436605506001,33.4271763046602
350,1436605506753,22.8851078287325
351,1436605507416,9.05040970232955
352,1436605508132,17.232884645068
353,1436605508863,39.1463953629801
354,1436605509573,39.5297168303671
355,1436605510338,33.3923794601128
356,1436605511068,24.485624447846
357,1436605511750,34.6048448796804
358,1436605512425,13.2168346690498
359,1436605514053,29.6918950138936
360,1436605514741,12.1161822721524
361,1436605515472,29.4300077889298
362,1436605516203,46.5917484732594
363,1436605516909,35.1208100417992
364,1436605517629,9.08323939689767
365,1436605518361,59.71896923898
366,1436605519101,34.323471296733
367,1436605519818,35.0867251095587
368,1436605520545,8.35172737629822
369,1436605521282,31.0169578050128
370,1436605521995,5.39192806490995
371,1436605522733,6.00805561422477
372,1436605523439,29.7037947490692
373,1436605524148,4.48287147712281
374,1436605524882,3.52958758509161
375,1436605525633,1.08459562314124
376,1436605526373,2.82125444064248
377,1436605527079,23.6785184823306
378,1436605528688,33.0616960957796
379,1436605529395,35.0229699157465
380,1436605530111,13.0049398393331
381,1436605530866,46.8887968411292
382,1436605531544,41.8040170567296
383,1436605532203,20.4056881436545
384,1436605532920,20.7180797102167
385,1436605533675,36.7423650053342
386,1436605534388,22.6972804234733
387,1436605535106,34.0563731328885
388,1436605535842,3.05432364800146
389,1436605536583,26.3724667682948
390,1436605537316,38.1489307342231
391,1436605538053,40.9213423623457
392,1436605538805,8.21654636586688
393,1436605539525,8.84239103343898
394,1436605540245,9.59909018132113
395,1436605540975,10.4759515824883
396,1436605541715,9.84516116144679
397,1436605542428,57.1686476546639
398,1436605543163,34.3957212167791
399,1436605543884,33.4357083395215
400,1436605544607,6.01550385504539
401,1436605545331,41.4472998479141
402,1436605546046,37.2689104852618
403,1436605546791,38.3880138031906
404,1436605547574,35.6187037745788
405,1436605548294,42.0469200693168
406,1436605549051,43.3967020845867
407,1436605549725,39.4452335856917
408,1436605551042,42.428078738037
409,1436605551620,39.3234000483881
410,1436605552283,32.4428753909443
411,1436605552951,39.4590992187281
412,1436605553583,24.4668356766017
413,1436605554267,42.1537204007562
414,1436605554990,41.2542860253384
415,1436605555745,34.2382900402013
416,1436605556467,36.7701640178473
417,1436605557130,25.1790799534179
418,1436605557846,44.770535592957
419,1436605558611,38.0416813365736
420,1436605559336,40.7468356122424
421,1436605560079,40.9467993442561
422,1436605560798,41.28861741866
423,1436605561536,46.3118763594544
424,1436605562257,38.9681962340789
425,1436605564075,26.1640890855988
426,1436605564747,28.0013319021389
427,1436605565477,25.1761593146846
428,1436605566200,21.0743646246712
429,1436605566932,16.0713305278458
430,1436605567718,36.0073008982631
431,1436605568389,34.5050882507322
432,1436605569105,39.3514431889258
433,1436605569845,37.609720389411
434,1436605570558,5.32637386968524
435,1436605571237,42.9960560688847
436,1436605571962,45.1384559172868
437,1436605572639,3.5081673778411
438,1436605573349,39.7565297446902
439,1436605574103,5.41801183717884
440,1436605574848,3.61776996319271
441,1436605575577,2.97571777543282
442,1436605576353,1.52728452742625
443,1436605577111,5.7696839178479
444,1436605577841,1.16342443090587
445,1436605578572,32.2980607770976
446,1436605579291,18.9935050564098
447,1436605580005,2.21677478852502
448,1436605580745,8.49670606311097
449,1436605581441,32.5841239005819
450,1436605582176,32.2200383469826
451,1436605582883,32.2993596902552
452,1436605583572,27.1094061156992
453,1436605584237,27.4501240270633
454,1436605584958,6.25077420938501
455,1436605585717,42.6802784056104
456,1436605586437,31.9072690616834
457,1436605587152,9.67797728499391
458,1436605587872,38.6660329818807
459,1436605588608,20.4273950269646
460,1436605589337,26.6390442857933
461,1436605590087,14.3468587326349
462,1436605590819,23.1867274072061
463,1436605591521,42.7006003470924
464,1436605592255,13.1059776995416
465,1436605592947,11.1249378851151
466,1436605593705,23.8318033678319
467,1436605594412,42.7475056006286
468,1436605595139,44.2553542163762
469,1436605595865,31.3297625553254
470,1436605596588,25.4502271757854
471,1436605597295,42.3976162096216
472,1436605597994,47.990663555952
473,1436605598755,37.7406692703705
474,1436605599478,39.8467656562393
475,1436605600208,61.9256107050712
476,1436605600949,57.5279464668467
477,1436605601686,44.6087765946221
478,1436605602414,42.9442034127859
479,1436605603131,46.3568396231088
480,1436605603828,55.7050602130414
481,1436605604553,49.1262376051567
482,1436605605279,55.0009252801568
483,1436605606020,43.4852017535655
484,1436605606779,50.5862449370433
485,1436605607513,39.3646746491758
486,1436605608250,40.4557942475661
487,1436605608931,43.1027514768698
488,1436605609657,39.6171297686255
489,1436605610387,31.4613755915762
490,1436605611097,32.0140110007445
491,1436605611805,23.0286664127372
492,1436605612533,53.2380342454803
493,1436605613274,50.2998652653968
494,1436605614021,62.9321983582102
495,1436605614785,64.5684738520397
496,1436605615496,60.1180202152095
497,1436605616250,28.281765654972
498,1436605616987,16.7208902419215
499,1436605617772,23.8522499346313
500,1436605618483,14.8113529617061
501,1436605619207,6.84117077832974
502,1436605619924,23.7709572349176
503,1436605620708,4.15040513972451
504,1436605621427,37.8728980477089
505,1436605622143,25.7464192270632
506,1436605622886,23.4147635769024
507,1436605623627,6.62762678480647
508,1436605624330,19.7310397444721
509,1436605625138,15.2003345405015
510,1436605625878,28.2717001340799
511,1436605626604,36.9062323636236
512,1436605627340,46.0626727816922
513,1436605628085,33.4263151867063
514,1436605628807,26.2421279036242
515,1436605629459,33.2674285556388
516,1436605630174,33.7153791073028
517,1436605630932,38.4237777049977
518,1436605631677,43.2104043487279
519,1436605632390,24.7244113437409
520,1436605633035,38.199440090963
521,1436605633781,14.0669491369992
522,1436605634515,17.7783442969397
523,1436605635223,9.55335233339916
524,1436605635945,40.0795594054367
525,1436605636710,25.6866294165153
526,1436605637425,36.6720738129425
527,1436605638223,37.5235331831726
528,1436605638923,8.99396576493807
529,1436605639703,4.60213041659634
530,1436605640416,21.7488702384645
531,1436605641149,10.6924968867924
532,1436605641866,16.2133731143299
533,1436605642594,51.0616182433864
534,1436605643325,27.4411764180175
535,1436605644076,33.7276073503173
536,1436605644832,33.6742171849537
537,1436605645562,12.3599171397492
538,1436605646299,56.1368683018761
539,1436605647051,54.1399473069722
540,1436605647788,13.3371632769767
541,1436605648477,44.1678508743258
542,1436605649097,26.8607568686667
543,1436605649797,20.0202900615554
544,1436605650538,35.8056337579911
545,1436605651259,37.7691302368057
546,1436605651971,36.6715475642236
547,1436605652692,37.9524358256341
548,1436605653404,40.1249597242202
549,1436605654145,37.3289444833551
550,1436605654895,3.08961599340127
551,1436605655637,4.09239495971382
552,1436605656363,35.3171859505972
553,1436605657107,45.5677172592399
554,1436605657835,20.4001045947626
555,1436605658571,2.92510793297414
556,1436605659286,25.1686879930336
557,1436605659993,6.50436420864621
558,1436605660732,34.6358235118375
559,1436605661453,3.42893883853588
560,1436605662175,25.7070946667358
561,1436605662907,12.9643794603446
562,1436605663637,33.9805956634092
563,1436605664348,29.3455434222082
564,1436605665095,32.8183205427431
565,1436605665837,27.9770628497397
566,1436605666519,32.3832236511676
567,1436605667175,37.7100008687467
568,1436605667899,44.8266738882253
569,1436605668681,42.7741798138625
570,1436605669401,13.8141926321466
571,1436605670129,8.04736213345354
572,1436605670826,27.0010127493924
573,1436605671495,30.5024625536094
574,1436605672187,40.7354229626477
