id,attr_time,attr_db
1,1436799258427,66.111631648525
2,1436799259119,62.4672343798175
3,1436799259864,42.5394825721973
4,1436799260584,40.5634436866475
5,1436799261326,23.9818231124383
6,1436799262033,36.9413986295742
7,1436799262726,39.8286413502749
8,1436799263391,26.2617980980357
9,1436799264129,34.163837852345
10,1436799264864,24.7563905914794
11,1436799265598,24.5947263468446
12,1436799266356,23.8127602682662
13,1436799267081,26.227168847675
14,1436799267816,22.2664979146785
15,1436799268563,33.5614064982458
16,1436799269275,29.8381675578748
17,1436799270012,34.943328293822
18,1436799270742,29.388045917651
19,1436799271477,41.0738100439667
20,1436799272265,75.4019074934901
21,1436799273007,48.7317630723884
22,1436799273742,50.4815246054911
23,1436799274402,49.5769060857022
24,1436799275092,44.5852484358956
25,1436799275817,51.5422373751643
26,1436799276546,42.0109008568392
27,1436799277264,44.9194506453385
28,1436799277966,47.3626589825879
29,1436799278683,47.8857538450838
30,1436799279424,56.9153047711113
31,1436799280116,46.0597683914325
32,1436799280771,38.141143973802
33,1436799281483,32.014851586283
34,1436799282222,41.6493061043348
35,1436799282953,46.4031116042585
36,1436799283699,50.9563196438196
37,1436799284394,50.4217473403996
38,1436799285096,48.7230485677621
39,1436799285827,64.8500035595122
40,1436799286558,45.5777433179619
41,1436799287323,61.2275215857277
42,1436799288037,48.5931672063796
43,1436799288774,54.5490958270681
44,1436799289515,45.5845733922393
45,1436799290254,44.3406831064881
46,1436799290974,46.5234882635498
47,1436799291721,50.9550384263105
48,1436799292452,45.595338232986
49,1436799293195,34.6383384717594
50,1436799293939,44.6214558717233
51,1436799294669,37.3203222342075
52,1436799295381,45.6591173907259
53,1436799296005,54.357024544372
54,1436799296691,40.0368608627752
55,1436799297465,73.979300985163
56,1436799298210,49.0173259198149
57,1436799298810,27.5534519619772
58,1436799299472,34.9853107160578
59,1436799300206,33.7532014993644
60,1436799300942,35.3843246665572
61,1436799301661,34.515523192196
62,1436799302405,34.819796172212
63,1436799303154,45.0688293321296
64,1436799303898,37.5151427550456
65,1436799304629,55.5783769549818
66,1436799305356,41.4218035898579
67,1436799306037,38.0162715202556
68,1436799306774,28.9226934066837
69,1436799307499,39.9696657259012
70,1436799308230,37.2765901515648
71,1436799308963,38.828382647098
72,1436799309669,42.3413689704336
73,1436799310365,39.8334467299552
74,1436799311068,43.1244709656705
75,1436799311784,43.1206354574271
76,1436799312505,49.590513962464
77,1436799313250,45.3688260251551
78,1436799313993,50.0399378078946
79,1436799314718,46.0143614278951
80,1436799315457,44.0383961995251
81,1436799316178,47.5307229819721
82,1436799316844,48.8130520201239
83,1436799317598,59.7955399366754
84,1436799318301,62.8975846205655
85,1436799318940,57.7403894198192
86,1436799319646,52.3738851763145
87,1436799320344,50.6064317734035
88,1436799321014,45.0589981704275
89,1436799321724,41.5326992726115
90,1436799322442,42.4679224658426
91,1436799323186,33.8420181441843
92,1436799323943,38.8526653629155
93,1436799324680,31.9261030127491
94,1436799325405,35.5326037347903
95,1436799326131,42.1814785111107
96,1436799326825,39.1006239967255
97,1436799327555,47.2553322567022
98,1436799328339,42.2979697722978
99,1436799328971,58.4246911493134
100,1436799329650,42.5741007526008
101,1436799330309,40.407509757137
102,1436799330949,34.3763009531604
103,1436799331692,46.5562307261736
104,1436799332405,44.1637937323544
105,1436799333128,41.1152427785591
106,1436799333826,42.6605935858139
107,1436799334473,39.2348446748216
108,1436799335234,48.9269912338884
109,1436799336039,38.2663435560456
110,1436799336780,46.9392015796991
111,1436799337451,53.4343495147314
112,1436799338067,41.4884067036779
113,1436799338707,50.687000745892
114,1436799339457,50.9769247821505
115,1436799340218,49.591437383595
116,1436799340949,42.9540091250631
117,1436799341730,39.1473395903115
118,1436799342461,41.6072501828661
119,1436799343181,45.1136954208109
120,1436799343927,42.4932953619333
121,1436799344684,41.6352687561401
122,1436799345417,42.4457501080806
123,1436799346165,44.580104124763
124,1436799346901,43.1069413117248
125,1436799347604,48.7449094766132
126,1436799348249,43.5471321562383
127,1436799348968,53.9860288345139
128,1436799349707,51.2245837209452
129,1436799350449,53.2793841737802
130,1436799351169,50.6283108857616
131,1436799351833,43.8899952812015
132,1436799352595,45.6237842023218
133,1436799353338,59.5634112287362
134,1436799354081,57.3355695470713
135,1436799354810,50.2414199303131
136,1436799355547,52.3125162407003
137,1436799356286,54.1809377632097
138,1436799357017,56.0749305518734
139,1436799357747,55.8377750088004
140,1436799358522,59.6451394317201
141,1436799359148,41.4370050301454
142,1436799359888,54.0836462941526
143,1436799360643,49.455652864005
144,1436799361370,53.6854527180001
145,1436799362094,45.6688851640021
146,1436799362785,54.8660529478384
147,1436799363505,38.4745312884948
148,1436799364242,49.8846292278091
149,1436799364968,42.0175526120852
150,1436799365708,38.7391071452144
151,1436799366443,57.2267505529916
152,1436799367185,40.0010852446649
153,1436799367918,38.188078586246
154,1436799368642,33.831320663497
155,1436799369339,40.7091277329747
156,1436799370075,31.0813436331949
157,1436799370782,39.1084970866398
158,1436799371511,41.342150224158
159,1436799372265,36.085533922346
160,1436799372950,37.8163411129815
161,1436799373567,44.8814816195834
162,1436799374276,41.9861824713921
163,1436799375008,46.5126065188019
164,1436799375737,35.8202539943979
165,1436799376511,43.7583107851018
166,1436799377243,42.5949011029719
167,1436799377988,42.4251711394417
168,1436799378676,40.1373194991231
169,1436799379298,43.4029438101409
170,1436799380043,39.94567822365
171,1436799380774,40.3262445341628
172,1436799381550,44.9946786282795
173,1436799382273,41.1833150279093
174,1436799382971,44.2277204871044
175,1436799383703,41.4444423902509
176,1436799384430,45.9701922205254
177,1436799385171,41.4586347777893
178,1436799385898,43.3989807874929
179,1436799386630,40.8895829230288
180,1436799387301,47.7747212884895
181,1436799388085,41.106151724717
182,1436799388881,41.9196079285595
183,1436799389609,42.9279617108195
184,1436799390308,49.0714885642587
185,1436799391013,41.488942068333
186,1436799391728,53.2987521759611
187,1436799392433,43.3191142383538
188,1436799393168,57.102524079624
189,1436799393931,40.5771063351514
190,1436799394652,52.975069581259
191,1436799395405,41.9997472149797
192,1436799396126,46.9231265611961
193,1436799396869,38.0998520767517
194,1436799397629,56.8767888176914
195,1436799398357,35.3389643959019
196,1436799399076,53.7737760147631
197,1436799399752,51.5727522848045
198,1436799400474,66.8253549134772
199,1436799401219,48.5210960044538
200,1436799401916,56.4244576452846
201,1436799402701,42.9337630519066
202,1436799403421,43.6112841390598
203,1436799404170,51.0722848387184
204,1436799404898,52.8348772471252
205,1436799405625,58.2890612446728
206,1436799406384,58.5492399032067
207,1436799407102,55.7840224341523
208,1436799407841,69.4987095426798
209,1436799408576,50.6269806118286
210,1436799409306,47.6698874534328
211,1436799410039,51.9491313203165
212,1436799410770,51.9026331149703
213,1436799411452,44.9777092819714
214,1436799412159,44.2014492826875
215,1436799412885,39.7586314174784
216,1436799413647,54.1004918711634
217,1436799414401,53.1303414740501
218,1436799415147,56.9992295062063
219,1436799415868,49.2435251564382
220,1436799416557,56.8594687017974
221,1436799417236,40.6020188611257
222,1436799417974,60.7638500047348
223,1436799418704,41.21462362384
224,1436799419433,60.4665807494374
225,1436799420076,35.9036518969419
226,1436799420769,48.3349503220401
227,1436799421515,31.4437363852286
228,1436799422261,36.3130470682649
229,1436799422911,37.0046815133592
230,1436799423607,42.5905860506661
231,1436799424325,41.0389705779363
232,1436799426303,46.9807793768365
233,1436799427053,46.3247079349919
234,1436799427795,44.5509908133618
235,1436799428516,48.6133602099555
236,1436799429240,45.4644598118886
237,1436799429980,49.3864626728542
238,1436799430709,44.4698735618869
239,1436799431464,53.2965163540939
240,1436799432167,44.8740971954834
241,1436799432986,48.0330676423733
242,1436799433744,53.2256074205345
243,1436799434506,57.8211104741314
244,1436799435250,66.7927708227701
245,1436799436005,58.3170804844964
246,1436799436753,45.8978932479399
247,1436799437485,62.3714490761629
248,1436799438214,40.552411006814
249,1436799438947,44.2453421909561
250,1436799440625,57.2356508055487
251,1436799441296,37.8662060503156
252,1436799442033,48.0658633990706
253,1436799442763,37.1260638851064
254,1436799443492,56.8927671903465
255,1436799444123,41.841870128864
256,1436799444830,44.8386286788004
257,1436799445593,48.2737032434625
258,1436799446323,50.7558416167703
259,1436799447056,58.9518401350258
260,1436799447796,46.9197393087377
261,1436799448540,48.4032494869161
262,1436799449367,45.203713434281
263,1436799450121,47.0019136077199
264,1436799450845,41.0955081192843
265,1436799451582,44.9727738253006
266,1436799452307,46.449499075151
267,1436799453042,46.6169824022004
268,1436799453749,74.0837129445551
269,1436799454362,42.3460517973774
270,1436799455059,36.176314297831
271,1436799455791,48.8429760232401
272,1436799456500,40.5574157921932
273,1436799457252,55.6072474057469
274,1436799457983,41.1710644398071
275,1436799458669,55.5821069790536
276,1436799459330,36.2670323010944
277,1436799460027,48.6873481870906
278,1436799460762,48.1165784173917
279,1436799461483,53.791306103935
280,1436799463419,33.5529931729455
281,1436799464115,32.3000507473921
282,1436799464819,38.9737765840465
283,1436799465507,45.1521627490642
284,1436799466214,44.6146348157531
285,1436799466974,41.3535397959135
286,1436799467753,37.3586132402827
287,1436799468486,37.3063836605948
288,1436799469267,35.6837595764494
289,1436799470005,55.9201996127985
290,1436799470747,32.6707225166528
291,1436799471468,40.093282247021
292,1436799472223,60.7937221883851
293,1436799472960,39.3373535114581
294,1436799473717,52.0690239927054
295,1436799474451,30.19613850084
296,1436799475066,35.1548084505978
297,1436799476437,39.1250296594337
298,1436799477086,43.6993426693865
299,1436799477818,41.2328836927909
300,1436799478531,36.7644386885336
301,1436799479216,41.0839889465214
302,1436799480035,31.2004576727916
303,1436799480755,60.0298946630562
304,1436799481489,42.8969674843066
305,1436799482210,64.8820895164269
306,1436799482944,43.4001302979711
307,1436799483707,61.7721988327351
308,1436799484465,40.5080626446552
309,1436799485182,56.9145434923665
310,1436799485914,43.0296910751524
311,1436799486671,60.0184117075919
312,1436799487424,43.9210339209658
313,1436799488139,61.199297477811
314,1436799488842,41.4992928245462
315,1436799489527,54.0382647417576
316,1436799490269,43.893663427347
317,1436799491470,46.6348109710137
318,1436799492086,57.0274768166142
319,1436799492742,43.2716299742093
320,1436799493468,54.331231477213
321,1436799494208,45.3451832215833
322,1436799494930,50.5606260330793
323,1436799495643,43.0342182179921
324,1436799496279,58.7804962530087
325,1436799496959,51.3817048137609
326,1436799497687,59.5670808423002
327,1436799498452,48.7007664734386
328,1436799499186,50.558300705289
329,1436799499856,52.8639373253398
330,1436799500458,59.5577207895676
331,1436799501145,43.3185459990371
332,1436799501887,45.5846852649943
333,1436799502643,41.6273040148572
334,1436799503374,47.3901503872608
335,1436799504104,39.0547790317218
336,1436799504822,46.2681209373211
337,1436799505545,40.3501012279653
338,1436799506280,41.2908540228715
339,1436799506991,58.9913449959855
340,1436799507638,41.7176972038091
341,1436799508377,52.0530096498174
342,1436799509113,59.3720777978123
343,1436799509885,48.8011091504134
344,1436799510635,64.1809836768632
345,1436799511333,47.8177988476383
346,1436799512074,58.9696612305703
347,1436799512802,56.1200409554505
348,1436799513525,62.1934809036382
349,1436799514274,65.7370540161291
350,1436799515008,63.1181802175606
351,1436799515739,62.1841095537388
352,1436799516478,55.9828313701242
353,1436799517211,60.1812279126313
354,1436799517888,49.8020430162854
355,1436799518634,55.1135030617747
356,1436799519403,46.5974242270986
357,1436799520117,58.098259853134
358,1436799520791,48.834131400524
359,1436799521588,46.9172849011028
360,1436799522259,43.7181547207664
361,1436799522945,57.475984478714
362,1436799523627,51.5507448130079
363,1436799524353,63.5783754312087
364,1436799525080,43.8648307382686
365,1436799525804,60.8728565965623
366,1436799526541,41.6830875800992
367,1436799527263,29.841204458158
368,1436799527978,40.447026840919
369,1436799528682,39.2626928236283
370,1436799529337,46.522394528312
371,1436799530058,42.4033936715438
372,1436799530812,49.2380241135186
373,1436799531565,41.8500663676206
374,1436799532237,46.2049346821797
375,1436799532966,40.7638518596159
376,1436799533724,52.7382407539188
377,1436799534449,41.5085359366735
378,1436799535182,53.6769467280977
379,1436799535909,39.7136205121965
380,1436799536634,54.4974817982178
381,1436799537372,41.2882356955029
382,1436799538061,44.9413023971574
383,1436799538729,43.5699011542111
384,1436799539458,44.6398640342675
385,1436799540191,42.2058615524356
386,1436799540842,43.3270813272795
387,1436799541506,44.7833601493359
388,1436799542221,40.065596427125
389,1436799542886,45.521187594332
390,1436799543601,64.9068463447359
391,1436799544330,43.3436938237476
392,1436799545056,61.2679417608693
393,1436799545804,39.1321126157232
394,1436799546535,55.3041470612769
395,1436799547275,52.9541666778855
396,1436799548017,59.1514296766299
397,1436799548752,48.0050627524223
398,1436799549498,62.235146124169
399,1436799550179,53.9070037857659
400,1436799550951,62.5716845497832
401,1436799551714,41.2789370538309
402,1436799552422,59.5082196540036
403,1436799553061,49.3707865333205
404,1436799553699,34.0218758574797
405,1436799554433,41.9720607584682
406,1436799555148,56.1395926732231
407,1436799555949,60.3003864292079
408,1436799556695,41.1924171950402
409,1436799557434,40.5503813287512
410,1436799558176,46.4847013965837
411,1436799558906,45.3565765414317
412,1436799559620,58.7406081482896
413,1436799560313,35.8787823395577
414,1436799561051,31.6401533025195
415,1436799561894,58.2104236876816
416,1436799562609,58.0924909732338
417,1436799563346,48.4666153589517
418,1436799563956,58.6331107240682
419,1436799564593,42.8690510323564
420,1436799565332,44.9271315173649
421,1436799566064,41.1510514041519
422,1436799566798,46.411200112731
423,1436799567529,47.3027495717797
424,1436799568257,59.5876231437081
425,1436799568987,45.0082096612119
426,1436799569734,57.8981603728636
427,1436799570458,45.1247630912268
428,1436799571089,55.5893648794016
429,1436799571815,52.6605958034291
430,1436799572599,57.9004007080581
431,1436799573322,52.0984033327798
432,1436799574071,54.3760985218728
433,1436799574832,57.5879093057017
434,1436799575567,56.4373806831714
435,1436799576301,54.9650522656295
436,1436799577014,51.8392120811326
437,1436799577750,62.4799409918625
438,1436799578494,51.858699416333
439,1436799579254,59.748133031612
440,1436799579985,54.9476169609611
441,1436799580765,54.5623019333169
442,1436799581413,43.3946216925095
443,1436799582155,51.5976773124127
444,1436799582880,39.6423554483745
445,1436799583593,43.647572073394
446,1436799584369,40.9275296065015
447,1436799585092,39.5826935860253
448,1436799585833,44.004959502042
449,1436799586562,38.8287055595615
450,1436799587305,38.7654434416314
451,1436799588045,42.4577095832219
452,1436799588781,38.3155584306076
453,1436799589532,41.040434999457
454,1436799590278,49.0868768977198
455,1436799591036,44.493122827725
456,1436799591767,37.0711850323678
457,1436799592504,48.7395228262385
458,1436799593234,42.2404995223591
459,1436799593971,57.6154880887566
460,1436799594703,50.2667171092135
461,1436799595430,39.3796000940865
462,1436799596178,47.4985545707731
463,1436799596916,48.9325807109486
464,1436799597647,53.9202760005284
465,1436799598377,43.6648739392082
466,1436799599102,48.6849685567134
467,1436799599856,46.4916074015345
468,1436799600603,50.4645640108599
469,1436799601320,48.5782822020174
470,1436799602001,39.3167219390295
471,1436799602734,47.8512750195934
472,1436799603499,41.5978926258367
473,1436799604245,64.9930228864956
474,1436799605027,52.8165815056948
475,1436799605773,58.6132919693004
476,1436799606503,54.1685519625384
477,1436799607107,62.405635062515
478,1436799607799,45.8942926440845
479,1436799608554,54.6630072679744
480,1436799609284,44.8887032757271
481,1436799610049,49.1988329586627
482,1436799610778,46.7000052452973
483,1436799611474,43.5752993224078
484,1436799612139,41.0845956231412
485,1436799612801,58.2381907680937
486,1436799613461,43.6907311822279
487,1436799614190,61.5872645034127
488,1436799614952,43.6527670481264
489,1436799615709,60.6837233268419
490,1436799616487,47.707246830261
491,1436799617176,67.8397172508935
492,1436799617912,48.9847784913586
493,1436799618624,60.8707041264621
494,1436799619356,47.5602864436811
495,1436799620102,58.9087804716983
496,1436799620828,42.9996499208525
497,1436799621578,46.4344455896525
498,1436799622303,46.1056670038679
499,1436799623027,53.026321386529
500,1436799623735,55.079882895598
501,1436799624475,37.8153537327304
502,1436799625234,61.8527500773808
503,1436799625970,44.3914142895187
504,1436799626717,62.2794558506464
505,1436799627439,43.5941863283323
506,1436799628164,43.1594224586418
507,1436799628840,38.3337842189745
508,1436799630294,45.5170619389418
509,1436799630942,66.2011750592781
510,1436799631637,49.4636080697367
511,1436799632368,64.2315456151341
512,1436799633116,52.058355229963
513,1436799633844,56.8663177391644
514,1436799634518,58.6696899414968
515,1436799635266,55.5264926491308
516,1436799636019,57.8828753606196
517,1436799636747,50.9975334123729
518,1436799637482,51.4142459371032
519,1436799638208,44.3892026419409
520,1436799638954,56.2439444988437
521,1436799639661,62.6324719641569
522,1436799640384,43.6102569819648
523,1436799641092,60.4773027472054
524,1436799641748,47.3979098090134
525,1436799642484,52.4373302733737
526,1436799643222,45.8292466618343
527,1436799643934,41.9532688421312
528,1436799644656,45.8160549974702
529,1436799645402,53.6320541587157
530,1436799646146,54.6288724343504
531,1436799646814,52.7635198167473
532,1436799648420,52.0771796496297
533,1436799649092,48.6091384774348
534,1436799649811,50.2857753881695
535,1436799650546,51.7535281807555
536,1436799651342,43.3753747696101
537,1436799652084,60.9513405082486
538,1436799652820,43.8312973577558
539,1436799653543,47.206878620415
540,1436799654286,43.0954543846041
541,1436799655018,38.4254099406557
542,1436799655729,43.1733277149187
543,1436799656521,34.4182946649911
544,1436799657247,60.3205337843414
545,1436799657977,44.0638611489462
546,1436799658710,53.9580435293275
547,1436799659467,40.8129209130702
548,1436799660175,44.6503515863535
549,1436799660918,46.2935541464855
550,1436799661661,64.3286990692984
551,1436799662302,37.8929846715915
552,1436799662986,47.2847041810045
553,1436799663713,51.2520857604534
554,1436799664471,48.6173041998564
555,1436799665189,54.4722276865496
556,1436799665891,44.5101536158282
557,1436799666669,55.7547556105158
558,1436799667393,60.3410893569262
559,1436799668112,52.8933663343436
560,1436799668822,52.9667869956864
561,1436799669564,48.7943509728968
562,1436799670341,53.322976953396
563,1436799671075,51.4196544170054
564,1436799671818,53.2273678334341
565,1436799672558,61.3456264947428
566,1436799673299,51.7195580324448
567,1436799674085,63.7437328594069
568,1436799674831,46.3934158554946
569,1436799675561,54.7522190431126
570,1436799676286,51.1037006459248
571,1436799676960,50.4001009041883
572,1436799677659,43.1807590636547
573,1436799679471,45.6810701546981
574,1436799680166,40.7775372964167
575,1436799680875,37.1961229818513
