id,attr_time,attr_db
1,1436799258616,37.6651929542066
2,1436799259394,35.3994621060896
3,1436799260117,46.7322035983902
4,1436799260868,37.1735996231345
5,1436799261565,65.017036082992
6,1436799262296,51.4000299031315
7,1436799262983,49.3378299455008
8,1436799263639,37.8468125014579
9,1436799264339,24.7099848529127
10,1436799265055,56.4597074593611
11,1436799265773,42.9657035723197
12,1436799266505,22.759822229941
13,1436799267240,52.9253792427697
14,1436799267985,35.7550167403653
15,1436799268738,38.5649683460849
16,1436799269480,41.4166882864317
17,1436799270165,30.9273988405539
18,1436799270895,31.697171939515
19,1436799271613,65.6747220630631
20,1436799272348,70.3925139002054
21,1436799273062,70.4495668228841
22,1436799273754,72.3771629539377
23,1436799274456,70.3469159586451
24,1436799275210,71.0665722902692
25,1436799275953,71.2429661981145
26,1436799276727,73.8484310891029
27,1436799277402,71.419022357227
28,1436799278144,70.8816525694503
29,1436799278911,74.1764737834169
30,1436799279629,74.6964000331162
31,1436799280367,71.7719271018605
32,1436799281193,70.8520897723375
33,1436799281910,72.515674572072
34,1436799282636,71.4902574234726
35,1436799283348,73.7777067154808
36,1436799283975,71.4613401840333
37,1436799284641,73.7924149445947
38,1436799285367,74.4982650030693
39,1436799286096,72.7841631140029
40,1436799286827,74.0802066049756
41,1436799287572,73.4779937013888
42,1436799288298,73.3676546201417
43,1436799289031,71.7082693758483
44,1436799289758,70.9513492053295
45,1436799290492,72.8470222970692
46,1436799291238,72.274116671627
47,1436799291971,72.1140562363226
48,1436799292696,70.7868438372476
49,1436799293429,71.3261881933688
50,1436799294128,71.2541627274007
51,1436799294811,73.0106126492501
52,1436799295551,71.4842166413493
53,1436799296284,73.4184158183507
54,1436799296998,71.6923756570011
55,1436799297707,73.9773881874599
56,1436799298429,73.4668938184685
57,1436799299131,73.474787515375
58,1436799299902,72.4764472920654
59,1436799300583,74.9191962866759
60,1436799301290,73.924044094859
61,1436799301900,71.3115479412899
62,1436799302607,71.1587296685526
63,1436799303311,72.7763114493322
64,1436799303999,70.6237126873131
65,1436799304673,74.3038809985858
66,1436799305406,72.2840331341013
67,1436799306144,70.8726344498853
68,1436799306888,73.7962727867421
69,1436799307643,70.1665157220241
70,1436799308400,71.600261433474
71,1436799309123,71.0357644876239
72,1436799309910,72.5658860144848
73,1436799310676,68.7063966380732
74,1436799311420,70.6722681899712
75,1436799312152,70.0708105822248
76,1436799312872,71.675386947968
77,1436799313625,74.1079641616056
78,1436799314226,69.9498283640067
79,1436799314962,71.159568045469
80,1436799315779,71.4177287842154
81,1436799316518,72.7650499157408
82,1436799317234,69.8424014178165
83,1436799317967,73.2789749520561
84,1436799318748,73.0885229243275
85,1436799319484,70.735455548016
86,1436799320287,72.8433442704205
87,1436799321025,72.5197628752822
88,1436799321712,72.0211185213959
89,1436799322410,72.6544351794843
90,1436799323146,73.5308949115087
91,1436799323849,74.5596070527217
92,1436799324502,71.4648508586317
93,1436799325245,70.613200560068
94,1436799325994,71.7568857751787
95,1436799326744,74.6075412632605
96,1436799327469,73.1486294196101
97,1436799328185,72.0071288550995
98,1436799328928,70.308277315269
99,1436799329655,73.8010785545715
100,1436799330245,69.5119553626124
101,1436799330920,72.6785930057059
102,1436799331655,72.8933282021883
103,1436799332413,69.9163519616521
104,1436799333161,70.2415116983272
105,1436799333892,71.9371680026451
106,1436799334629,70.4299747192486
107,1436799335294,73.9247966099073
108,1436799336029,72.8945384668662
109,1436799336760,73.9158330222722
110,1436799337477,74.0867596635293
111,1436799338207,73.6827383570524
112,1436799338963,71.4607632782335
113,1436799339722,69.5978963483084
114,1436799340370,70.5490971141882
115,1436799341081,71.7612373238923
116,1436799341797,73.057735965309
117,1436799342435,74.5108459294658
118,1436799343169,73.9730849924523
119,1436799343900,71.5225283151815
120,1436799344625,72.9419487399856
121,1436799345273,70.9477597399435
122,1436799345961,73.510219212174
123,1436799346725,67.3911377310064
124,1436799347470,70.3544562720213
125,1436799348196,71.714478977852
126,1436799348938,73.7691688442467
127,1436799349679,70.8587382257257
128,1436799350386,73.2250855810858
129,1436799351086,71.7206133455507
130,1436799351806,71.8253116592526
131,1436799352536,73.0048329393939
132,1436799353272,72.7273304683033
133,1436799354012,69.5882749485586
134,1436799354738,69.819545675468
135,1436799355382,73.3713697197213
136,1436799356080,73.6561559667046
137,1436799356870,72.9364662157592
138,1436799357626,72.8946318798704
139,1436799358357,71.037995403731
140,1436799359073,71.9125591071374
141,1436799359812,71.1692582169652
142,1436799360558,72.2721419939536
143,1436799361152,71.3731126724398
144,1436799361811,71.7035146691951
145,1436799362501,69.8185923683543
146,1436799363230,71.3885627168339
147,1436799364009,71.522201393845
148,1436799364743,70.2323790442806
149,1436799365467,69.113351756509
150,1436799366224,70.2365108791288
151,1436799366943,71.1332092618758
152,1436799367624,72.6522279670131
153,1436799368362,73.918485778492
154,1436799369145,69.8807807034404
155,1436799369879,71.1376051599502
156,1436799370696,72.0919643689602
157,1436799371380,72.2694595509234
158,1436799371991,72.8353200496517
159,1436799372700,72.6295619295741
160,1436799373438,73.2257272695131
161,1436799374178,72.6312202417351
162,1436799374924,73.0984231263071
163,1436799375665,72.4864869511309
164,1436799376423,74.761208024938
165,1436799377051,74.167904656202
166,1436799377735,73.8607356340402
167,1436799378456,71.8807947151719
168,1436799379186,72.2172495044191
169,1436799379905,70.0194460560878
170,1436799380665,70.7552397781604
171,1436799381377,72.1822313960731
172,1436799382062,70.8370480582316
173,1436799382725,70.3924155232669
174,1436799383460,67.9571831328065
175,1436799384209,69.9119861831821
176,1436799386157,71.751416100069
177,1436799386876,72.529164139554
178,1436799387626,72.0633319488685
179,1436799388359,71.692256148701
180,1436799389015,73.3939826340518
181,1436799389836,71.4315724174415
182,1436799390595,71.8754816923206
183,1436799391320,72.6658822037535
184,1436799392029,73.2834056414148
185,1436799392777,72.0808498917571
186,1436799393492,73.9861870053794
187,1436799394156,71.1716753333835
188,1436799396095,72.6610730800393
189,1436799396800,71.9160947998246
190,1436799397534,72.7356710551097
191,1436799398274,71.6460712557558
192,1436799399007,72.0368216433674
193,1436799399733,74.1885368209018
194,1436799400446,74.9868859813873
195,1436799401109,70.3934329592648
196,1436799401849,68.5944869850092
197,1436799402595,70.327042135938
198,1436799403313,71.0681486438107
199,1436799404036,72.140622110115
200,1436799404799,72.2338273119051
201,1436799405600,71.7664223009368
202,1436799406325,72.461089069216
203,1436799407052,70.7701804634273
204,1436799407794,69.8827692950602
205,1436799408525,73.0617155215574
206,1436799409253,72.1325496049812
207,1436799411358,70.7559799647659
208,1436799412046,72.4011519029674
209,1436799412777,72.1371063865746
210,1436799413552,71.8165234850861
211,1436799414351,74.0876184236458
212,1436799415136,70.9594695104295
213,1436799415838,73.2568931041173
214,1436799416565,73.5419808599613
215,1436799417302,73.3845607211554
216,1436799418035,73.8793666188259
217,1436799418749,72.892047090419
218,1436799420207,72.3816751337094
219,1436799420944,71.9221432756021
220,1436799421606,71.5645815592796
221,1436799422222,72.7667505318905
222,1436799422964,75.2721634308304
223,1436799423701,73.2587662003323
224,1436799424390,74.3374952802955
225,1436799425053,72.4153685857597
226,1436799425846,74.3588075118897
227,1436799426529,72.8468177838327
228,1436799427259,72.1133746106365
229,1436799427988,73.2453795077002
230,1436799428725,70.6303897206075
231,1436799429467,71.9851712286032
232,1436799430275,73.2101834938864
233,1436799430976,74.8840659840842
234,1436799431728,74.2939891305632
235,1436799432497,74.3509117551254
236,1436799433248,71.1619670393422
237,1436799433947,74.0335045079103
238,1436799434698,73.4147903864545
239,1436799435419,75.3525886123057
240,1436799436152,72.0479150803717
241,1436799436892,71.3706137409003
242,1436799437681,70.406788518372
243,1436799438398,71.938699923304
244,1436799439147,71.1761909995975
245,1436799439869,72.2017506396989
246,1436799440609,71.4042918109301
247,1436799441346,71.6671049593802
248,1436799442023,72.8697839729241
249,1436799442643,75.0199072628526
250,1436799443352,70.1647516495465
251,1436799444091,70.5700355370541
252,1436799444851,74.2172151140025
253,1436799445602,75.2591836721631
254,1436799446353,73.4481244718515
255,1436799447079,73.775804355205
256,1436799447837,71.986956715694
257,1436799448440,70.8109882233693
258,1436799449125,72.73172460806
259,1436799449862,70.999946312561
260,1436799450592,71.6005685267478
261,1436799451339,71.898693660487
262,1436799452067,71.959261914443
263,1436799452789,73.0925449517491
264,1436799453508,73.879965087381
265,1436799454182,74.2957336145678
266,1436799454881,72.9205310109892
267,1436799455624,70.7437725349192
268,1436799456363,69.1682733007361
269,1436799457092,69.3638776526745
270,1436799457818,71.3378049860826
271,1436799458558,72.0783304842686
272,1436799459205,73.2044262312188
273,1436799459915,74.0166130518436
274,1436799460653,73.0651994580784
275,1436799461406,71.4610876824382
276,1436799462147,71.5805361467642
277,1436799462792,73.6103158671904
278,1436799463533,74.5332677912619
279,1436799464270,77.4337652651834
280,1436799465007,73.2955944991804
281,1436799465726,72.394303122279
282,1436799466431,73.2132599438929
283,1436799467107,72.7181315115253
284,1436799467858,72.9354373864728
285,1436799468605,70.439716842872
286,1436799469306,73.1831017448649
287,1436799469997,72.7178354698169
288,1436799470707,73.5828339435544
289,1436799471447,72.685819207069
290,1436799472135,71.6746886953537
291,1436799472882,71.3489324795083
292,1436799473619,72.0897655505348
293,1436799474360,73.1086266700864
294,1436799475101,72.4678647236669
295,1436799475838,73.2714964407105
296,1436799476542,73.8632806545891
297,1436799477196,68.1274894213334
298,1436799477927,70.439754759491
299,1436799478640,71.2667686589429
300,1436799479371,69.0125503989295
301,1436799480106,73.6852505940923
302,1436799480850,71.7063263619373
303,1436799481661,72.5804739953241
304,1436799482390,70.0530036782417
305,1436799483028,73.0985395392256
306,1436799483733,70.2095264433344
307,1436799484488,71.085358562566
308,1436799485228,71.5471618392911
309,1436799485955,72.270116436897
310,1436799486675,72.1819025680025
311,1436799487416,73.225312033466
312,1436799488140,71.4553749381219
313,1436799488859,73.5869058030833
314,1436799489586,72.6763529217216
315,1436799490323,72.6086401896511
316,1436799491065,71.3578950519979
317,1436799491793,70.7717443105664
318,1436799492581,73.0575734238776
319,1436799493238,70.5016811032099
320,1436799493895,72.926233401076
321,1436799494532,70.7967487963579
322,1436799495189,72.0940352758082
323,1436799495937,73.7703608751474
324,1436799496661,73.8555121837433
325,1436799497357,73.1070381639525
326,1436799498030,71.0213405393208
327,1436799498760,72.9104903542289
328,1436799499495,71.2552547301728
329,1436799500260,70.3912430579953
330,1436799500947,74.547516243786
331,1436799501666,74.4490225194997
332,1436799502387,75.3018624437894
333,1436799503128,71.2938361975628
334,1436799503839,70.4674239330434
335,1436799504638,72.3709317354141
336,1436799505368,71.8202192189567
337,1436799506128,72.1409953357087
338,1436799506860,73.385643965103
339,1436799507557,73.0485942324647
340,1436799508218,72.4283866425626
341,1436799508952,71.6739957038699
342,1436799509688,72.3281725035475
343,1436799510431,72.1234140042279
344,1436799511165,71.7915566000736
345,1436799511898,71.127375383094
346,1436799512642,70.7815662518906
347,1436799513365,71.6218771214292
348,1436799514138,70.6305911664389
349,1436799514940,71.1761822850637
350,1436799515679,70.6738120551528
351,1436799516414,71.3057594494966
352,1436799517160,74.5800232595045
353,1436799517900,73.4782902802379
354,1436799518633,73.3329057426231
355,1436799519429,76.1748384318352
356,1436799520158,72.835714776144
357,1436799520877,72.4234053212683
358,1436799521599,75.5089007148762
359,1436799522273,73.8132722557958
360,1436799522932,72.092783718874
361,1436799523670,71.0826761732652
362,1436799524359,70.5078724018298
363,1436799525040,74.8701939789092
364,1436799525777,74.93333125028
365,1436799526508,73.0205169818666
366,1436799527266,73.1494599862267
367,1436799527978,69.2493776729978
368,1436799528679,73.6550515518221
369,1436799529369,72.6882709551322
370,1436799530152,73.9644077411697
371,1436799530902,76.3970968173673
372,1436799531639,73.6321970890428
373,1436799532388,74.6356196161427
374,1436799533060,73.872550742112
375,1436799533805,72.4777694552444
376,1436799534557,74.784747349855
377,1436799535295,73.821666612015
378,1436799536027,73.8559982250674
379,1436799536766,74.119111223001
380,1436799537508,74.6352385265606
381,1436799538246,74.3974463643466
382,1436799538990,72.1694293755438
383,1436799539727,72.7308906644748
384,1436799540470,74.8356257116788
385,1436799541633,73.5023070822947
386,1436799542291,72.7640545035982
387,1436799543020,72.5817066359912
388,1436799543757,75.0575443254486
389,1436799544597,71.9401344584385
390,1436799545255,73.5975855589521
391,1436799545995,70.0012285850861
392,1436799546724,71.5705842006581
393,1436799547453,70.4457951061834
394,1436799548168,71.2523503408845
395,1436799549001,70.0772723815416
396,1436799549726,71.1488195586328
397,1436799550447,71.44421221797
398,1436799551183,69.763533719321
399,1436799551900,70.978625094767
400,1436799552583,72.6013438260267
401,1436799553261,73.2240761762812
402,1436799554027,71.3695623046198
403,1436799554757,71.0309552188209
404,1436799555472,74.0710595249836
405,1436799556189,72.8643281628971
406,1436799556929,74.2365249356248
407,1436799557717,72.6605036334507
408,1436799558424,70.6493603237344
409,1436799559157,70.6349847711776
410,1436799559904,72.8882577510958
411,1436799560633,71.8870349848162
412,1436799561378,72.2059805255257
413,1436799562116,72.0919795678735
414,1436799562832,71.2408053503068
415,1436799563529,74.6997212059166
416,1436799564246,74.3316760195381
417,1436799564936,71.7119269864168
418,1436799565691,73.8884199378256
419,1436799566413,73.3855266874316
420,1436799567130,71.3389865125844
421,1436799567866,73.9237419985372
422,1436799568537,73.37586192306
423,1436799569309,69.3768284453857
424,1436799570007,70.9685682858106
425,1436799570731,72.8479810207739
426,1436799571462,71.9640415982441
427,1436799572188,71.3329410485985
428,1436799572915,70.4308185232298
429,1436799573589,73.270765170799
430,1436799574321,73.5634181509374
431,1436799575058,72.0848854737045
432,1436799575775,71.5075264893314
433,1436799576503,72.0630277165944
434,1436799577237,73.5265264948854
435,1436799577926,71.8468590166645
436,1436799578603,75.4351598096813
437,1436799579410,73.3308537324536
438,1436799580130,73.9982222005958
439,1436799580864,73.8730572135766
440,1436799581598,73.4796174210071
441,1436799582332,74.0427122870825
442,1436799583065,72.9851483398082
443,1436799583755,72.8588488805178
444,1436799584617,72.6925071278063
445,1436799585273,73.7888067627477
446,1436799586006,72.4267640564707
447,1436799586762,71.6651020698501
448,1436799587504,71.645018219427
449,1436799588196,71.4518000076893
450,1436799588779,70.8663376308424
451,1436799590120,73.3062351027972
452,1436799590807,72.0644767803672
453,1436799591531,73.4305056577895
454,1436799592280,71.5310116702815
455,1436799592991,72.4156223624539
456,1436799593702,74.3739389156388
457,1436799594495,70.9074799502293
458,1436799595221,72.7595057780452
459,1436799595960,71.9834473859436
460,1436799596717,73.3366319827292
461,1436799597441,71.7698696180179
462,1436799598168,71.8737045077627
463,1436799598901,71.5963701388445
464,1436799599744,72.1176197448506
465,1436799600495,71.6080342391689
466,1436799601236,70.9371441976997
467,1436799601959,73.0182551441653
468,1436799602731,71.6085542638515
469,1436799604378,72.8761527333972
470,1436799605118,72.3211890609849
471,1436799605792,72.7091287957619
472,1436799606535,71.3282957432939
473,1436799607263,73.4892188360172
474,1436799607962,73.1153645456382
475,1436799608733,70.488445253358
476,1436799609494,71.499736362536
477,1436799610230,72.5858620303429
478,1436799610957,71.1709608922043
479,1436799611687,71.1476036094412
480,1436799612427,71.0176915106445
481,1436799613148,70.3764309011929
482,1436799613892,72.2723337611392
483,1436799614747,74.2105272908392
484,1436799615422,73.7318305245648
485,1436799616162,75.6252019362314
486,1436799616856,73.3149359166725
487,1436799617538,73.3524413168236
488,1436799618281,72.5432608343762
489,1436799619010,72.230179276898
490,1436799619813,71.1139065492512
491,1436799620535,74.1890444768361
492,1436799621217,72.9506399220694
493,1436799621947,71.6669888795708
494,1436799622678,71.0093745065214
495,1436799623407,71.4630133652028
496,1436799624103,72.8564546448929
497,1436799624726,75.1912652813903
498,1436799625387,72.0839206924427
499,1436799627349,71.7045145041989
500,1436799628007,71.2577926516425
501,1436799628734,75.803638739368
502,1436799629471,73.8033901106402
503,1436799630209,73.4373415489279
504,1436799630941,71.6014939089069
505,1436799631671,73.7884943159103
506,1436799632400,71.3426337021534
507,1436799633141,72.0179443724181
508,1436799633862,71.7207197813296
509,1436799634618,71.0761069931887
510,1436799635562,73.4998768781357
511,1436799636309,72.8362886664034
512,1436799637063,76.3473058307923
513,1436799637799,71.6895794912652
514,1436799638519,73.092337741426
515,1436799640256,74.7213106992393
516,1436799641001,76.9964487615306
517,1436799641737,73.5966604822965
518,1436799642493,74.0006294142085
519,1436799643219,74.0896460892082
520,1436799643966,73.6657507817346
521,1436799644872,70.2072931084003
522,1436799645505,66.8850808126803
523,1436799646166,72.1365625220682
524,1436799646880,73.4777990698502
525,1436799647650,73.0962138508934
526,1436799648377,75.0700817968221
527,1436799649110,76.068140581284
528,1436799649895,72.8556517385028
529,1436799650648,71.0662685732493
530,1436799651321,72.3809336244664
531,1436799652048,74.2135029439898
532,1436799652778,75.2862809037262
533,1436799653507,74.8403748351892
534,1436799654304,74.4354954341429
535,1436799654984,71.7701438392606
536,1436799655641,71.6942988752884
537,1436799656342,71.4058921054394
538,1436799657075,73.0735298959282
539,1436799657813,71.232142457457
540,1436799658580,72.5130307018456
541,1436799659365,72.1178675835011
542,1436799660175,67.9772478245159
543,1436799660902,73.5787934786466
544,1436799661645,71.5651787575743
545,1436799662367,72.6854202565244
546,1436799663093,71.7383066421304
547,1436799663808,75.3081719252813
548,1436799664532,72.9667125275425
549,1436799665292,73.0007142484904
550,1436799665958,72.9069466548949
551,1436799666725,72.4148077552412
552,1436799667472,72.8635753276835
553,1436799668200,72.1494453730765
554,1436799668948,71.4309035332505
555,1436799669787,74.4462472066343
556,1436799670527,73.9693304650092
557,1436799671243,74.4667027580642
558,1436799671942,74.4311905535105
559,1436799672608,68.8218021499721
560,1436799673292,70.6696718267104
561,1436799674026,69.6653545270821
562,1436799674769,70.8139375829824
563,1436799675512,72.7098067658431
564,1436799676276,73.1830224354449
565,1436799676979,71.6617141093239
566,1436799677604,70.4100433928848
567,1436799678295,72.89863650054
568,1436799679048,72.6272869060581
569,1436799679839,73.2823745093792
570,1436799680609,71.0443709806844
571,1436799681356,73.2939730923978
572,1436799682049,70.9826189582234
573,1436799682687,73.5181403351312
574,1436799683399,69.1592113573896
575,1436799684121,72.7671672618867
576,1436799684868,72.9243696797899
