id,attr_time,attr_db
1,1436799258321,59.2539035008639
2,1436799258986,52.1670068073647
3,1436799259735,62.1165661837848
4,1436799260466,30.6275523106421
5,1436799261200,34.4919630420923
6,1436799261902,39.415373997228
7,1436799262475,37.942024153767
8,1436799264410,26.6865818734979
9,1436799265060,24.7775693263566
10,1436799265797,50.5153354240992
11,1436799266523,30.2616718276631
12,1436799267232,30.48589846978
13,1436799267965,39.2599467652872
14,1436799268689,64.8394267525733
15,1436799269418,62.1778841190038
16,1436799270129,61.3494677096122
17,1436799271706,62.0766521728189
18,1436799272466,42.9930395560806
19,1436799273164,42.8168349206239
20,1436799273833,42.5032548392547
21,1436799274546,44.996363374763
22,1436799276231,61.2698415485768
23,1436799276996,45.0265018871767
24,1436799277661,55.8272615468865
25,1436799278402,59.3777630337889
26,1436799279140,54.7435562469494
27,1436799279890,45.9608110131338
28,1436799280614,45.2269031454765
29,1436799281353,42.7498000117726
30,1436799282084,44.2275112469939
31,1436799282863,49.0804129059824
32,1436799283614,43.791380130164
33,1436799284343,51.1227845450841
34,1436799285090,67.6845764242683
35,1436799285806,55.2673790686437
36,1436799286389,66.0907699348205
37,1436799287068,55.0461891640939
38,1436799287791,58.9141318161474
39,1436799288495,54.3187460026019
40,1436799289178,56.8703050652115
41,1436799289916,58.6127806105913
42,1436799290637,59.3780722838483
43,1436799291322,54.0238480754582
44,1436799292040,53.7614966155385
45,1436799292821,56.4153501451069
46,1436799293586,58.500516372259
47,1436799294318,56.6514325994377
48,1436799295066,54.5693186323608
49,1436799295792,53.9810176078674
50,1436799296460,51.6526857502444
51,1436799297040,61.9607905528182
52,1436799297780,43.0229823738315
53,1436799298537,51.0435905462002
54,1436799299269,52.0017367756501
55,1436799299968,53.7689964875824
56,1436799300647,43.9522577803114
57,1436799301350,43.0133460718877
58,1436799301978,49.9465457851761
59,1436799302685,55.3905298345861
60,1436799303468,45.0065654638666
61,1436799304199,48.5648702855908
62,1436799304969,43.9332293137855
63,1436799305684,43.684339992538
64,1436799306325,47.2785753779566
65,1436799307012,61.4440315103686
66,1436799307863,60.1536521276094
67,1436799308598,47.9623651169422
68,1436799309322,42.2720344776506
69,1436799310041,44.2126400680987
70,1436799310786,43.4781607246157
71,1436799311536,44.2292008056564
72,1436799312266,45.855127719624
73,1436799313032,46.2046538583044
74,1436799313798,46.4498416835858
75,1436799314522,48.901570601828
76,1436799315263,52.8849533381554
77,1436799315949,56.9135423946778
78,1436799316609,60.5609337933018
79,1436799317336,68.7162080020934
80,1436799318060,54.503526836151
81,1436799318820,46.4033061480572
82,1436799319507,43.3042929550707
83,1436799320187,49.7450163082037
84,1436799320923,45.9848165573803
85,1436799321682,47.0670146639357
86,1436799322414,42.0952822087932
87,1436799323160,45.665689506253
88,1436799323917,44.6882690117562
89,1436799324648,45.0390029085105
90,1436799325428,42.9506352466577
91,1436799326176,41.1513372656983
92,1436799326919,47.1566648062183
93,1436799327650,45.1916471643998
94,1436799328374,49.509282723076
95,1436799329108,46.9750324707022
96,1436799329863,53.7697918154918
97,1436799330581,48.2724995830687
98,1436799331358,52.1694959358461
99,1436799332076,53.8200091114615
100,1436799332852,59.2865189694351
101,1436799333647,59.1466587661332
102,1436799334316,54.4676284003843
103,1436799334971,52.5352191857264
104,1436799335708,48.0974669089112
105,1436799336418,51.3019358581585
106,1436799337090,44.1637879694388
107,1436799337863,43.1929708826595
108,1436799338627,41.9343030009491
109,1436799339391,42.8497606557389
110,1436799340185,55.7063126302148
111,1436799340942,59.952940402995
112,1436799341673,63.1237171663646
113,1436799342433,58.5328331446643
114,1436799343257,60.3651122171938
115,1436799343991,46.7454918251768
116,1436799344706,44.0052598116029
117,1436799345417,43.2879771675392
118,1436799346051,58.7597823152665
119,1436799346754,54.3845417399395
120,1436799347487,55.4173221752978
121,1436799348253,55.2074070420765
122,1436799348973,63.2271146526453
123,1436799349605,45.2112794999967
124,1436799350331,45.8612631677912
125,1436799351036,43.273854906782
126,1436799351750,45.0947362774497
127,1436799352482,52.3126806504518
128,1436799353225,52.0185098738325
129,1436799354027,42.840672415444
130,1436799354787,47.7618584891267
131,1436799355517,45.878543280298
132,1436799356240,46.4727029339923
133,1436799356977,45.4443470687134
134,1436799357737,59.8286536678538
135,1436799358502,54.2466618947561
136,1436799359251,53.5012035020812
137,1436799360040,53.9603043597594
138,1436799360740,58.3495399444251
139,1436799361307,47.0102634896721
140,1436799361983,43.6706363810367
141,1436799362714,50.7426389084377
142,1436799363461,44.8195747154074
143,1436799364190,56.9982644960081
144,1436799364925,42.1679755949008
145,1436799365505,63.3377905603548
146,1436799366082,56.2935289369783
147,1436799366649,56.6139604795996
148,1436799367196,44.2196460155255
149,1436799367781,61.0595245939921
150,1436799368499,67.4686443257813
151,1436799369276,61.9133171217349
152,1436799369948,71.3902353975706
153,1436799370545,44.3806031186243
154,1436799371107,53.3450681615159
155,1436799371659,43.8901201530184
156,1436799372208,64.5694187843093
157,1436799373220,54.9299570435104
158,1436799374058,57.8439493076731
159,1436799374744,53.776340148257
160,1436799375514,53.0593523181221
161,1436799376261,57.3568599420725
162,1436799376809,40.9011292928884
163,1436799377390,54.6030701206812
164,1436799377957,42.3553934523999
165,1436799378507,52.4280473615341
166,1436799379083,54.0318618505818
167,1436799379774,42.5883261237283
168,1436799380578,56.2200811249925
169,1436799381262,43.9103305589003
170,1436799381844,43.2140031579044
171,1436799382406,51.0224174444104
172,1436799382967,45.5167351328286
173,1436799383516,53.860996940791
174,1436799385022,54.5835589513751
175,1436799385694,51.5099467609462
176,1436799386424,54.5016298940515
177,1436799387174,41.3578596193022
178,1436799387806,52.3167572488704
179,1436799388382,60.9686876447078
180,1436799388958,40.4722594258436
181,1436799389520,47.3645759866946
182,1436799390112,54.7566959501566
183,1436799390845,48.710041638759
184,1436799391615,54.9637012072478
185,1436799392183,43.4006055073407
186,1436799392743,61.0940551109686
187,1436799393328,43.3599609707422
188,1436799393908,53.1393416973955
189,1436799394478,42.7650388894969
190,1436799395670,49.3786891394008
191,1436799396420,56.984279492757
192,1436799397098,47.3664132072815
193,1436799397814,39.7662327132754
194,1436799398523,54.331368309485
195,1436799399207,46.7365005769462
196,1436799399947,48.3938599560941
197,1436799400693,43.5835860332423
198,1436799401418,67.1654354382616
199,1436799402148,49.1073148296677
200,1436799402851,57.1342268191277
201,1436799403520,51.360960196085
202,1436799404223,53.5874182688293
203,1436799404983,69.924193066049
204,1436799405742,58.2278842565436
205,1436799406471,61.9547815092232
206,1436799407074,65.3240214015244
207,1436799407741,41.8003372340428
208,1436799408401,42.7215964326318
209,1436799408986,61.9040937799183
210,1436799409645,52.5673295720325
211,1436799410379,57.075577880984
212,1436799411127,57.5211793455633
213,1436799411928,66.5110119962802
214,1436799412672,63.359346431901
215,1436799413393,47.4726660490475
216,1436799414025,52.3071970887113
217,1436799414718,46.6171278195716
218,1436799415456,54.7257104084566
219,1436799416205,53.8794255692657
220,1436799416813,43.3055678883481
221,1436799417472,64.6262676771857
222,1436799418167,61.6305272254079
223,1436799418823,70.6218600372452
224,1436799419508,57.2043751364747
225,1436799420170,62.8210739361159
226,1436799420776,44.4133651937548
227,1436799421508,42.0629286247606
228,1436799422193,47.2136898145264
229,1436799422896,66.7107021857177
230,1436799423632,60.7336351675367
231,1436799424332,59.3228036045451
232,1436799424982,52.0807583971843
233,1436799425662,43.4543082739623
234,1436799426390,49.183164893331
235,1436799427141,48.3310252846697
236,1436799427892,55.5973607991406
237,1436799428645,53.8086856678352
238,1436799429306,48.2359779496641
239,1436799430041,45.620967540573
240,1436799430777,45.351784571121
241,1436799431496,45.1520577629037
242,1436799432224,42.193239626577
243,1436799432990,53.5482645990841
244,1436799433691,50.244556281372
245,1436799434419,54.7373005692105
246,1436799435055,44.9503279133437
247,1436799435768,45.7015141720079
248,1436799436522,54.1965813474144
249,1436799437176,44.1943593080152
250,1436799437841,61.6351294594205
251,1436799438546,57.2942068418268
252,1436799439346,53.3915918022845
253,1436799440063,57.3429936459707
254,1436799440826,54.2837158104779
255,1436799441610,61.3249500916956
256,1436799442262,56.1106167206168
257,1436799442997,51.1626803614973
258,1436799443706,56.526861322464
259,1436799444452,52.443681099289
260,1436799445187,57.0451833688236
261,1436799445868,73.6956509965573
262,1436799446509,63.8663958163401
263,1436799447242,56.8523614438985
264,1436799448009,62.2781169003568
265,1436799448727,65.6024658740529
266,1436799449474,58.5469881206797
267,1436799450203,55.4806822581481
268,1436799450943,56.3784718611199
269,1436799451681,58.4225104848645
270,1436799452406,56.5258597292904
271,1436799453081,71.4926705499548
272,1436799453709,57.1692711924074
273,1436799454428,46.6847562621304
274,1436799455156,57.934416916048
275,1436799455843,52.7483617378844
276,1436799456503,46.6725131933386
277,1436799457242,43.5676157733559
278,1436799457972,48.9781922581609
279,1436799458664,46.8156674979991
280,1436799459348,62.0214942351528
281,1436799460072,66.1282212212173
282,1436799460909,49.2776865275052
283,1436799462869,55.5423803030532
284,1436799463501,46.2064152897398
285,1436799464198,44.0666121353253
286,1436799464940,46.6003416364178
287,1436799465679,42.7415389086823
288,1436799466428,55.9447392901492
289,1436799467056,57.4729244570092
290,1436799467760,52.4945113032809
291,1436799468544,48.57470702254
292,1436799469281,50.5967735351698
293,1436799470037,45.3836114175378
294,1436799470786,46.3694951519441
295,1436799472681,50.6531580060356
296,1436799473404,52.2538106816138
297,1436799474131,52.0327075549136
298,1436799474900,51.122595738736
299,1436799475629,43.4136461572936
300,1436799476374,43.872435378075
301,1436799477131,48.5766166301833
302,1436799477971,57.4006725022915
303,1436799478678,57.8882447295715
304,1436799479290,49.3325350946289
305,1436799479967,47.9211460384042
306,1436799480672,43.0435765734682
307,1436799481286,61.0186439217403
308,1436799481962,49.6017190704283
309,1436799482716,64.0316636073549
310,1436799483427,54.4056574126249
311,1436799484146,52.1037831556567
312,1436799484876,44.9221605080392
313,1436799485623,45.5615256925355
314,1436799486331,52.645592810964
315,1436799487746,44.695878330967
316,1436799488441,50.6311142320327
317,1436799489177,44.4160676199305
318,1436799489871,58.9556636572203
319,1436799490526,56.2010909434161
320,1436799491248,60.8049253703556
321,1436799491988,52.9997514597828
322,1436799492623,68.7859632698512
323,1436799493394,72.7306084989163
324,1436799494131,60.6134864247527
325,1436799494821,66.1363177711045
326,1436799496311,69.6711595211512
327,1436799497004,65.899160934065
328,1436799497723,68.4979101461719
329,1436799498439,72.3570646277096
330,1436799499171,67.6587130352186
331,1436799499913,66.4860101300056
332,1436799500683,71.4832247644464
333,1436799501403,58.0505413547066
334,1436799502138,66.6556955935105
335,1436799502935,45.1829703722384
336,1436799503537,74.6675534301935
337,1436799504215,65.0488015017089
338,1436799504959,67.3345908780687
339,1436799505718,68.9349506171422
340,1436799506458,70.4221654299865
341,1436799507220,56.7814774650245
342,1436799507968,55.764171080538
343,1436799508611,68.2348644159197
344,1436799509337,65.5711732256937
345,1436799510065,64.351929988766
346,1436799510806,68.4463824648575
347,1436799511546,69.3104849787148
348,1436799512280,53.5992534254028
349,1436799512995,64.4388085309444
350,1436799513783,65.3828760190185
351,1436799514514,66.589334973031
352,1436799515165,64.9615833856818
353,1436799515916,66.2991054419521
354,1436799516661,59.313743263612
355,1436799517374,64.9646549951882
356,1436799518020,50.7989747100262
357,1436799518825,64.1715287088082
358,1436799519399,49.751432580494
359,1436799519929,62.6005655742391
360,1436799520476,51.8419415317389
361,1436799521019,66.7557900991578
362,1436799521594,49.3059696925307
363,1436799522297,56.8979215759674
364,1436799523060,62.7882798488156
365,1436799523998,71.2040027367934
366,1436799524577,42.2692533337965
367,1436799525105,62.3204785254427
368,1436799525661,42.34858426231
369,1436799526247,62.4203351688029
370,1436799527503,45.7126755816037
371,1436799528272,50.5999916828462
372,1436799529014,41.8612194385748
373,1436799529756,53.8413054583346
374,1436799530301,66.8792568883132
375,1436799530868,42.1459054837083
376,1436799531414,58.1754860626869
377,1436799531993,55.0953434287773
378,1436799532677,45.1699474812738
379,1436799533424,43.8970961320712
380,1436799534161,50.8713862842408
381,1436799534758,63.548310490565
382,1436799535327,41.2140548254492
383,1436799535882,56.4839550052411
384,1436799536422,46.5040372757602
385,1436799537909,44.5298804777532
386,1436799538640,43.6979915467224
387,1436799539380,44.9034069996328
388,1436799540122,42.5418876744963
389,1436799541001,59.8529812321634
390,1436799541580,48.1931656811558
391,1436799542135,59.7711490266392
392,1436799542707,64.5464658176356
393,1436799543291,52.5373344562692
394,1436799543973,65.3578440715454
395,1436799544726,62.8385961261331
396,1436799545458,55.3079130228999
397,1436799546037,71.3875228384563
398,1436799546590,47.5119248827466
399,1436799547156,58.659353051169
400,1436799547735,43.0106387790338
401,1436799549573,45.3345061425248
402,1436799550261,61.757503183412
403,1436799550981,55.7804471097958
404,1436799551650,60.3912095814348
405,1436799552397,62.1957436531884
406,1436799553114,59.8808318937039
407,1436799553947,45.6100563186583
408,1436799554599,63.8091015521468
409,1436799555346,62.2496701140665
410,1436799556081,64.4778411727811
411,1436799556792,66.8802933056086
412,1436799557474,54.1910407860679
413,1436799558144,52.7075359129646
414,1436799558977,54.7230011805757
415,1436799559724,54.0699838359808
416,1436799560468,55.2421976606668
417,1436799561247,62.9320121744688
418,1436799561952,67.2753140254313
419,1436799562576,50.1897193954571
420,1436799563293,55.280289494247
421,1436799564083,55.9952669399116
422,1436799564848,61.0449251570135
423,1436799565597,55.7598137590825
424,1436799566326,58.3964844981491
425,1436799567044,55.4455817199405
426,1436799567806,57.5725391393173
427,1436799568551,55.5226807151837
428,1436799569274,54.8185124067345
429,1436799569988,50.4235340289089
430,1436799570729,49.2714235807923
431,1436799571472,58.9555542683714
432,1436799572266,57.9095806266476
433,1436799573000,60.7803862438764
434,1436799573768,66.9873657704457
435,1436799574508,64.9052471947755
436,1436799575243,64.4224154489748
437,1436799575986,65.7280694873697
438,1436799576591,46.4031889621424
439,1436799577330,54.9590080397066
440,1436799578034,45.270815731286
441,1436799578835,53.8781316727825
442,1436799579577,43.4805270928996
443,1436799580302,56.9074215851985
444,1436799581032,60.2404811355272
445,1436799581810,49.609564167901
446,1436799582555,55.8166887957288
447,1436799583285,55.4745277727313
448,1436799584036,52.3817821216901
449,1436799584803,55.8551366973742
450,1436799585532,47.075158144926
451,1436799586265,46.8040271225977
452,1436799587008,56.367438454423
453,1436799587825,60.6037291201948
454,1436799588641,60.3888594120501
455,1436799589358,63.3991180841292
456,1436799590081,67.8225355401336
457,1436799590864,65.9151007930959
458,1436799591568,65.4257275837182
459,1436799592302,66.2579244578912
460,1436799592978,67.2266414900515
461,1436799593668,52.6939877820588
462,1436799594447,62.3846729199202
463,1436799595200,67.6339227518382
464,1436799595934,66.6807626522169
465,1436799596684,64.2751556666036
466,1436799597415,69.1895701783211
467,1436799598091,56.9952808394911
468,1436799598871,68.2041527840732
469,1436799599678,66.1528918043928
470,1436799600405,55.0136793805074
471,1436799601150,45.7535433048584
472,1436799601943,45.4175819852169
473,1436799602661,43.6508106064489
474,1436799603266,68.1332098155243
475,1436799603961,60.9321631494429
476,1436799604693,51.8456272084229
477,1436799605412,55.7799502254971
478,1436799606113,57.0583591342988
479,1436799606882,54.9312306335423
480,1436799607626,55.7770645543615
481,1436799608356,52.0860109831187
482,1436799609095,63.5240313218142
483,1436799609870,57.088974661316
484,1436799610602,61.889509176517
485,1436799611327,55.3793089632605
486,1436799612058,54.2095152613508
487,1436799612894,66.2616180476068
488,1436799613620,66.7612971488593
489,1436799614447,45.6548391370375
490,1436799615142,43.4362330139013
491,1436799615776,64.8304994038463
492,1436799616510,66.2392025014359
493,1436799617239,52.6915676954108
494,1436799617946,54.1267386553012
495,1436799618620,44.0889853174631
496,1436799619418,56.2070469016409
497,1436799620150,46.6871509319028
498,1436799620912,52.6043345782028
499,1436799621651,51.4341231531942
500,1436799622403,54.0640272626783
501,1436799623136,54.142386890305
502,1436799623911,61.3603682002548
503,1436799624653,70.2635469152695
504,1436799625394,73.995555440702
505,1436799626201,62.5540068902939
506,1436799626981,60.6164510736156
507,1436799627706,62.5796006953273
508,1436799628436,57.5813277352962
509,1436799629189,46.4157026383386
510,1436799629948,40.1513795526293
511,1436799630677,40.6871858053098
512,1436799631404,45.4738618803451
513,1436799632164,55.1637611564219
514,1436799632970,50.1998962458163
515,1436799633741,55.5899883159853
516,1436799634337,45.5385798725826
517,1436799635036,62.2413395172596
518,1436799635802,62.159168563684
519,1436799636536,61.5926108462208
520,1436799637283,56.9763308623229
521,1436799638014,50.3151534871915
522,1436799638663,58.5188167521722
523,1436799639473,66.0072372932059
524,1436799640219,63.6803843499709
525,1436799640970,47.3378399815589
526,1436799641632,62.9920414003556
527,1436799642347,60.6070145590457
528,1436799643078,60.2779786405641
529,1436799643779,53.1477697121294
530,1436799644585,65.7781518719228
531,1436799645234,61.4123432648619
532,1436799645901,42.5499090068628
533,1436799646627,50.6586102028282
534,1436799647369,53.4575732393199
535,1436799648092,60.0080064630993
536,1436799648907,51.5493777447592
537,1436799649634,48.2146317834899
538,1436799650325,50.8589737793631
539,1436799651047,44.1553434367185
540,1436799651817,42.6006478938538
541,1436799652561,53.8182251682577
542,1436799653321,43.5608789246475
543,1436799654099,56.505618005763
544,1436799654820,51.6619269882706
545,1436799655499,47.6610258366485
546,1436799656126,45.8935604038641
547,1436799656916,42.0778341396681
548,1436799657663,43.0205416617115
549,1436799658403,45.7892928723251
550,1436799659129,64.095353985626
551,1436799659897,41.2821229674776
552,1436799660626,56.7567038423234
553,1436799661402,41.2895454598919
554,1436799662112,41.7628321401454
555,1436799662853,42.6238004640686
556,1436799663427,69.9894977408933
557,1436799664184,57.4016784035258
558,1436799664918,69.8645185437482
559,1436799667199,66.8384175124571
560,1436799667926,66.4128367068471
561,1436799668684,72.2981703735161
562,1436799669424,71.9532792553809
563,1436799670165,71.258363181703
564,1436799670946,44.4715106890029
565,1436799671590,71.3857686066414
566,1436799672368,72.6127436090847
567,1436799673131,70.0937143041737
568,1436799673888,59.7357958593141
569,1436799674680,61.7053304408406
570,1436799675420,55.9019427914243
571,1436799676146,53.9853420773835
572,1436799676777,73.6999643894046
573,1436799677456,59.4742343957869
574,1436799678212,49.8351426309522
575,1436799678979,63.2680983847923
