id,attr_time,attr_db
1,1436802576852,41.1773985821803
2,1436802577282,40.2715555020513
3,1436802577781,35.4881238553945
4,1436802578245,27.1715977612666
5,1436802578711,25.4354716058445
6,1436802579193,39.365702004686
7,1436802579705,40.3771556435837
8,1436802580151,43.4268421667377
9,1436802580597,38.5813455482719
10,1436802581089,57.8801751231755
11,1436802581589,54.4569842598357
12,1436802582056,47.8877557791203
13,1436802582565,39.9141351734294
14,1436802583093,58.7295499625088
15,1436802583622,55.8932197456162
16,1436802584094,50.7347253348363
17,1436802584598,47.3530861773309
18,1436802585137,59.5488563411126
19,1436802585622,49.0626174618634
20,1436802586130,43.6806743808637
21,1436802586619,50.4571376432441
22,1436802587105,63.0440163758739
23,1436802587599,63.8176047345803
24,1436802588082,65.2260598577878
25,1436802588580,65.5459807184048
26,1436802589072,58.9997172958516
27,1436802589571,47.1029680313491
28,1436802590101,54.8129679342725
29,1436802590588,58.146665882034
30,1436802591081,58.0915671282486
31,1436802591597,63.3803972453306
32,1436802592085,48.9700864753754
33,1436802592589,44.4651985909302
34,1436802593083,40.0222050600404
35,1436802593578,39.5669127292963
36,1436802594066,43.0956357320365
37,1436802594450,40.7985824027465
38,1436802594855,44.1228539163276
39,1436802595312,48.8047572688057
40,1436802595819,60.6821569592846
41,1436802596308,63.1289826966902
42,1436802596781,64.7444806524481
43,1436802597280,70.2979172035035
44,1436802597746,71.8809605617233
45,1436802598209,62.8647347286105
46,1436802598682,49.9876573271402
47,1436802599157,37.7173620393225
48,1436802599661,57.0981184617226
49,1436802600166,42.3148847012443
50,1436802600658,42.9642949609144
51,1436802601139,56.7469167337945
52,1436802601619,67.1631630392008
53,1436802602100,62.4779985230465
54,1436802602589,68.2105605835667
55,1436802603081,46.9420056796659
56,1436802603586,62.404689579275
57,1436802604082,57.3525011527264
58,1436802604571,55.761758591122
59,1436802605053,47.4305504809109
60,1436802605580,57.4712082096322
61,1436802606072,72.9586983937165
62,1436802606517,49.5248211929059
63,1436802606950,36.3513298129667
64,1436802607377,36.7192388907749
65,1436802607815,43.8346985219226
66,1436802608293,41.7573337931071
67,1436802608790,35.6656957647361
68,1436802609290,36.9131501367503
69,1436802609788,60.7328344019751
70,1436802610247,61.9448894543325
71,1436802610758,62.7793697080118
72,1436802611113,60.4735089644289
73,1436802611536,49.9406939727447
74,1436802612005,46.9331075184911
75,1436802612485,51.7746385418354
76,1436802612969,47.8985846917606
77,1436802613496,48.440482559494
78,1436802613979,46.659807660321
79,1436802614525,36.7866957407715
80,1436802614875,38.1276094308703
81,1436802615330,41.9785236767311
82,1436802615850,49.6124795724769
83,1436802616286,38.1972893064992
84,1436802616700,35.4882965706689
85,1436802617157,37.5971700499131
86,1436802617633,49.1998247699652
87,1436802618141,55.4309751739307
88,1436802618646,60.5878678806375
89,1436802619132,51.3426107862827
90,1436802619612,68.0766228998335
91,1436802620102,43.6145607606694
92,1436802620603,62.0146546426344
93,1436802621085,68.4356770340372
94,1436802621573,48.5316555687524
95,1436802621954,48.7734440767183
96,1436802622290,33.3314120984835
97,1436802622671,54.5533757206639
98,1436802623135,56.6599392892247
99,1436802623619,50.7113810919349
100,1436802624085,40.6698214227857
101,1436802624581,59.630445723965
102,1436802625077,60.8023378625489
103,1436802625569,69.8680338924177
104,1436802626069,54.8128487443241
105,1436802626568,62.5820752971993
106,1436802627046,66.1177635308343
107,1436802627561,66.5816132069882
108,1436802628054,56.9477953812826
109,1436802628557,47.6614271668373
110,1436802628953,43.3005173403372
111,1436802629377,69.8623930840367
112,1436802629837,69.4394239732352
113,1436802630371,70.5494472479421
114,1436802630823,61.0692535702164
115,1436802631291,70.0400917125547
116,1436802631757,62.4018544227016
117,1436802632233,63.4661343861146
118,1436802632725,47.7387214596554
119,1436802633196,62.5539388628303
120,1436802633659,41.9630429670014
121,1436802634154,58.3152375317544
122,1436802634576,49.7466176816684
123,1436802634988,36.0899416161422
124,1436802635438,58.5318814099287
125,1436802635906,57.7483850435651
126,1436802636379,50.6417451362073
127,1436802636860,44.4178073707099
128,1436802637381,32.8881780029844
129,1436802637890,39.534595547801
130,1436802638361,40.2340674689133
131,1436802638859,35.6352851258275
132,1436802639359,45.9519151385667
133,1436802639837,52.4003070566315
134,1436802640320,52.4228503093866
135,1436802640780,54.2341870118349
136,1436802641262,48.9392948956086
137,1436802641747,47.1176562658338
138,1436802642208,66.6266351066571
139,1436802642677,68.1906655823978
140,1436802643143,54.9164800306665
141,1436802643638,44.4268592501876
142,1436802644140,38.0585484772262
143,1436802644609,68.3282385894179
144,1436802645079,69.0914908338517
145,1436802645660,68.1034764751174
146,1436802646155,66.5934330264442
147,1436802646630,67.821926428609
148,1436802647098,58.7533837592386
149,1436802647581,44.5472024349756
150,1436802648079,55.8377979315806
151,1436802648583,38.0221385089718
152,1436802649080,44.0738614292636
153,1436802649577,59.7716105092514
154,1436802650134,63.2830149796285
155,1436802650622,61.2195303739233
156,1436802651116,74.6799209602873
157,1436802651604,66.7187750801541
158,1436802652082,71.5032350682691
159,1436802652593,58.7226692952294
160,1436802653082,36.4767176312047
161,1436802653588,39.7781986253361
162,1436802654080,72.7082552872973
163,1436802654563,58.1268776657453
164,1436802654973,57.4865790360734
165,1436802655429,35.3424746887197
166,1436802655876,47.1922671001536
167,1436802656336,49.3298836804223
168,1436802656808,59.110345706608
169,1436802657279,53.462338098847
170,1436802657751,52.4854490245327
171,1436802658242,45.289958815328
172,1436802658700,51.1909923263369
173,1436802659167,56.5501754962368
174,1436802659639,53.36359753068
175,1436802660170,58.2493012412223
176,1436802660626,50.8413608729536
177,1436802661059,40.734368652198
178,1436802661565,40.1024706003224
179,1436802662035,41.3181239425967
180,1436802662564,39.3592835470488
181,1436802663047,41.1119857521492
182,1436802663540,32.5725696293817
183,1436802664053,37.211518149332
184,1436802664557,46.5614987549853
185,1436802665037,34.2642800555147
186,1436802665611,56.7407391645178
187,1436802666101,62.202437041175
188,1436802666599,56.3867639919802
189,1436802667092,54.0993055958637
190,1436802667570,70.6039636545421
191,1436802667957,49.6640749685081
192,1436802668332,59.1359111456598
193,1436802668801,54.1398693958103
194,1436802669300,60.5909705642022
195,1436802669829,56.860567690794
196,1436802670299,67.494320218773
197,1436802670789,61.239758448692
198,1436802671284,58.7084648987227
199,1436802671725,64.1609566329142
200,1436802672139,43.5796722287399
201,1436802672601,50.1873875694734
202,1436802673089,43.4492367573377
203,1436802673580,58.2232457219253
204,1436802674056,55.3153411420528
205,1436802674546,63.9277441012184
206,1436802674958,53.6971804809997
207,1436802675305,47.1771023608653
208,1436802675649,39.0382921601592
209,1436802675994,45.1238401063066
210,1436802676428,42.8044844791897
211,1436802676909,39.6473150071043
212,1436802677380,45.9063738334031
213,1436802677852,37.9353963405533
214,1436802678359,34.546070922239
215,1436802678818,36.3770935562862
216,1436802679279,40.667556590276
217,1436802679706,37.0325164389192
218,1436802680082,67.5699583289095
219,1436802680501,65.0212639894957
220,1436802680957,58.8180375484092
221,1436802681443,50.454326175091
222,1436802681917,61.7649542285726
223,1436802682385,56.5396087949893
224,1436802682862,41.0602899252874
225,1436802683366,41.7361727592119
226,1436802683818,45.4162652275534
227,1436802684266,58.6824601428087
228,1436802684729,39.4591872544271
229,1436802685199,44.8805938509229
230,1436802685788,45.8464299688243
231,1436802686258,46.9915230006263
232,1436802686736,44.0717964299739
233,1436802687206,46.0463659687755
234,1436802687681,54.7309649402587
235,1436802688188,63.6765440050197
236,1436802688670,42.3266354915805
237,1436802689158,60.3783205644358
238,1436802689646,63.8640196052415
239,1436802690128,52.5357394256906
240,1436802690620,43.8165585772077
241,1436802691018,50.1073349518954
242,1436802691452,57.7756365394812
243,1436802691911,51.3940276591192
244,1436802692383,42.6941857481036
245,1436802692871,32.4165899904519
246,1436802693345,27.2642874226647
247,1436802693830,35.1309877842314
248,1436802694287,54.2220969205434
249,1436802694774,58.7093346856952
250,1436802695224,57.6347443616509
251,1436802695599,47.959641931969
252,1436802695950,40.9610561258517
253,1436802696365,49.1841595469307
254,1436802696833,37.6250796459285
255,1436802697288,41.3484164395545
256,1436802697758,59.6501821578677
257,1436802698197,61.8024613801963
258,1436802698662,38.7825316866484
259,1436802699088,46.6961212126373
260,1436802699465,33.2635461185259
261,1436802699796,49.9974000243192
262,1436802700251,57.835273083698
263,1436802700795,48.582931267225
264,1436802701226,63.2791880227155
265,1436802701691,53.3960196867985
266,1436802702176,55.7214979133092
267,1436802702655,36.2551129095955
268,1436802703137,37.8141697592874
269,1436802703618,65.2656988044746
270,1436802704118,55.8130386064748
271,1436802704616,56.5211668457842
272,1436802705014,42.5843838928014
273,1436802705444,62.3811462098296
274,1436802705960,55.7151811694519
275,1436802706448,62.7137667522557
276,1436802706946,64.182649434841
277,1436802707428,64.3780074228682
278,1436802707923,63.5573855636242
279,1436802708398,36.8823647500786
280,1436802708881,37.1754810628945
281,1436802709361,58.1882596005517
282,1436802709841,42.0938163655713
283,1436802710343,44.6327141669438
284,1436802710851,38.8465363375309
285,1436802711281,56.6061874569514
286,1436802711680,35.7426382730801
287,1436802712177,40.6970330238323
288,1436802712656,36.4655316143326
289,1436802713127,52.4518327818314
290,1436802713607,63.442980570431
291,1436802714106,55.9019803005609
292,1436802714648,38.7880841053934
293,1436802715073,47.2490059360537
294,1436802715515,39.5729682904721
295,1436802715943,43.2456933531774
296,1436802716410,42.9560876796925
297,1436802716915,42.4075694368122
298,1436802717411,55.924347678446
299,1436802717919,50.6233454948103
300,1436802718397,46.5493158471964
301,1436802718879,59.3133470834816
302,1436802719362,42.5759408586911
303,1436802719823,63.8788693066136
304,1436802720312,34.4729367524418
305,1436802720824,34.4238296443753
306,1436802721288,56.7351691235551
307,1436802721712,59.7242187015905
308,1436802722076,53.7325642560665
309,1436802722508,58.5384684166513
310,1436802722953,49.9987963496457
311,1436802723423,65.0448026516067
312,1436802723897,65.2835065052611
313,1436802724419,39.5526757063238
314,1436802724875,49.1150271829855
315,1436802725300,41.5587273832103
316,1436802725778,52.4614185405598
317,1436802726277,63.3009208299
318,1436802726761,50.9176708998045
319,1436802727233,45.9598006761681
320,1436802727738,40.213560027656
321,1436802728227,62.3340819859072
322,1436802728702,55.0141942621702
323,1436802729182,56.4431510321353
324,1436802729712,64.6768701552209
325,1436802730193,58.6772396322546
326,1436802731464,38.1330634361941
327,1436802731791,42.2347105192418
328,1436802732229,49.5861420229361
329,1436802732697,60.7489094358662
330,1436802733158,52.9564812380927
331,1436802733654,62.7357674189983
332,1436802734129,45.6088843634891
333,1436802734606,50.0629620455389
334,1436802735190,36.4794680316943
335,1436802735639,42.7279979478063
336,1436802736014,44.7491443113346
337,1436802736423,54.3286728892355
338,1436802736874,62.1461246267483
339,1436802737348,55.3719183249732
340,1436802737829,40.2268946776315
341,1436802738319,60.6405783842375
342,1436802738777,49.5588820214979
343,1436802739265,48.1533979689058
344,1436802739717,42.9044534715753
345,1436802740167,51.477483092019
346,1436802740643,44.1846745610293
347,1436802741138,41.6590359320481
348,1436802741613,49.6801031040424
349,1436802741987,61.2291271080604
350,1436802742367,59.9326067506155
351,1436802742831,54.8149569677639
352,1436802743305,39.5875926102022
353,1436802743781,62.4668072567137
354,1436802744246,42.5449830619385
355,1436802744783,58.5591678721059
356,1436802745266,62.2491686108495
357,1436802745711,59.3839434571104
358,1436802746183,57.6185090876258
359,1436802746657,61.1628531755224
360,1436802747160,45.5058716721383
361,1436802747660,48.1967935910959
362,1436802748086,45.1654047911422
363,1436802749354,45.271830216283
364,1436802749848,47.398275178509
365,1436802750303,54.1100925703103
366,1436802750738,61.366477807344
367,1436802751211,39.8388358486984
368,1436802751703,61.2494504006044
369,1436802752148,55.2446867531839
370,1436802752541,65.1891038537582
371,1436802752972,42.5343224001325
372,1436802753432,47.0938729549682
373,1436802753912,42.1990823446913
374,1436802754375,40.034595116947
375,1436802754938,31.5756532507024
376,1436802755406,31.6782095325912
377,1436802755883,34.9481561383724
378,1436802756310,48.7808520870817
379,1436802756738,44.7773295380293
380,1436802757194,48.2532584344126
381,1436802757677,55.0290837974199
382,1436802758152,58.0688850343589
383,1436802758647,57.9175721378349
384,1436802759137,39.9411662781872
385,1436802759632,47.8017187494494
386,1436802760119,60.1017411505762
387,1436802760617,58.8430645411041
388,1436802761092,69.5109497768378
389,1436802761601,45.7416613365976
390,1436802762075,52.7639470097043
391,1436802762568,40.5756990776399
392,1436802762966,36.5533441292702
393,1436802763387,39.1609516119332
394,1436802763842,46.8930795791675
395,1436802764335,54.3587970033105
396,1436802764818,55.6069050439471
397,1436802765347,69.0338514927531
398,1436802765831,43.7635835049989
399,1436802766295,52.0918421701433
400,1436802766780,64.6152500576213
401,1436802767278,64.3299455923238
402,1436802767754,70.3271582170795
403,1436802768227,53.982267982724
404,1436802768705,63.323975040777
405,1436802769170,55.5358838479566
406,1436802769663,56.277400297178
407,1436802770173,46.8432683695312
408,1436802770651,70.7276892349573
409,1436802771121,65.3229740004163
410,1436802771613,61.7327628312164
411,1436802772097,62.7152012943147
412,1436802772602,51.9082331985654
413,1436802772982,46.5073307666356
414,1436802773379,43.2839336474543
415,1436802773831,38.1046715112417
416,1436802774302,53.0419808120533
417,1436802774811,41.2019239358575
418,1436802775315,35.508988116067
419,1436802775774,39.6142711450884
420,1436802776233,40.904262178742
421,1436802776628,39.7499977267393
422,1436802777072,47.1745663384644
423,1436802777534,54.8569108209298
424,1436802778009,54.7860449727664
425,1436802778499,55.9623773717403
426,1436802778996,56.3457601085391
427,1436802780649,46.641100342935
428,1436802781132,42.549700293719
429,1436802781639,34.932284844104
430,1436802782110,36.4501693896317
431,1436802782592,39.9748109513768
432,1436802783073,36.8215859560118
433,1436802783566,43.0777374489361
434,1436802783969,50.6662757765285
435,1436802784406,41.8356493910868
436,1436802784857,43.2560878526697
437,1436802785397,59.4693075588868
438,1436802785905,58.2761032379215
439,1436802786364,53.4931996513974
440,1436802786839,61.1105838800678
441,1436802787346,58.7055608378546
442,1436802787821,54.1926610498993
443,1436802788309,45.9653853701069
444,1436802788786,48.1806112268065
445,1436802789269,59.9487838281266
446,1436802789748,64.5779676994174
447,1436802790218,42.5082791157427
448,1436802790698,52.5977603570982
449,1436802791199,57.822715678475
450,1436802791668,67.4351881965188
451,1436802792151,60.6701432092042
452,1436802792629,46.0344669738242
453,1436802793100,55.1796311914617
454,1436802793603,52.5667174600084
455,1436802794088,48.9288949231186
456,1436802794576,49.346483761422
457,1436802795149,57.2536901248623
458,1436802795630,54.7359624036176
459,1436802796949,48.5904880998935
460,1436802797379,50.7222748951018
461,1436802797850,52.5345088636262
462,1436802798327,65.4115490879168
463,1436802798809,57.6491256209525
464,1436802799297,62.187125079495
465,1436802799769,54.6118935318536
466,1436802800208,40.3592582764223
467,1436802800584,52.6721600683513
468,1436802800967,52.3504971028457
469,1436802801410,52.6028486799793
470,1436802801862,62.8583048211555
471,1436802802343,65.2393677713835
472,1436802802766,59.3084350951668
473,1436802803100,42.8835943812562
474,1436802803542,42.3705139248919
475,1436802804020,36.8744003022351
476,1436802804491,37.8884883972785
477,1436802804976,42.0805962282028
478,1436802805563,37.6601223301923
479,1436802806052,46.9971780459397
480,1436802806564,67.2128560802848
481,1436802807043,67.5864584110543
482,1436802807549,57.8521482324312
483,1436802807979,65.0773874821697
484,1436802808429,50.5936397767878
485,1436802808900,62.1220140106122
486,1436802809406,68.8543015757265
487,1436802809895,51.7281890126084
488,1436802810348,36.4757990606249
489,1436802810824,50.7765533791468
490,1436802811221,48.3895953531604
491,1436802811631,41.0224960178314
492,1436802812136,49.0477070964957
493,1436802812649,45.7449006352232
494,1436802813122,58.0370824093058
495,1436802813577,50.9150846586839
496,1436802813973,43.4348608914315
497,1436802814392,54.0511433974539
498,1436802814847,64.6076857622527
499,1436802815360,55.6333269370927
500,1436802815801,41.8148474564803
501,1436802816236,71.1979265473719
502,1436802816712,58.7456779400319
503,1436802817192,58.4792727783907
504,1436802817656,60.1905538008457
505,1436802818056,42.3262933985052
506,1436802818484,38.1956239070197
507,1436802818947,43.381457385947
508,1436802819438,43.0939402263346
509,1436802819904,39.7459949278318
510,1436802820376,43.7430442884438
511,1436802820845,46.3507169645482
512,1436802821307,55.8473643423955
513,1436802821784,61.4266504608715
514,1436802822258,43.7814836896536
515,1436802822707,64.7655846808781
516,1436802823138,61.0015792293177
517,1436802823602,68.629684909704
518,1436802824028,61.8313958591222
519,1436802824444,63.03185054889
520,1436802824917,58.8932701678934
521,1436802825431,48.4846266970894
522,1436802825901,59.5585332468157
523,1436802826443,49.8838559749093
524,1436802826886,58.7419596759498
525,1436802827363,61.3938985515894
526,1436802827866,51.3732908999563
527,1436802828357,45.0058639481557
528,1436802828860,46.3039991615563
529,1436802829359,62.5441986451356
530,1436802829861,54.0589755485815
531,1436802830395,61.4010018142688
532,1436802830869,65.8949074791277
533,1436802831361,49.7706623955587
534,1436802831841,55.161686546266
535,1436802832319,62.6928214572468
536,1436802832795,45.1469265116364
537,1436802833279,60.9909366724385
538,1436802833742,63.260877790406
539,1436802834229,45.7485795175633
540,1436802834634,45.0048195070554
541,1436802835084,41.6574105183315
542,1436802835607,57.7204309691934
543,1436802836094,41.4592978092448
544,1436802836581,50.823127312912
545,1436802837078,41.5020264929341
546,1436802837551,48.9666137345723
547,1436802838034,43.141270197037
548,1436802838513,51.7993019154007
549,1436802838993,56.9873969371703
550,1436802839472,52.9750704305466
551,1436802839937,66.4742955999137
552,1436802840435,50.6855104938596
553,1436802840899,64.9432702928322
554,1436802841411,55.9008507955791
555,1436802841921,56.3745727799953
556,1436802842376,46.9096383896048
557,1436802842855,59.0121427036389
558,1436802843333,52.3640845909265
559,1436802843824,57.0946384637125
560,1436802844220,64.520366074331
561,1436802844640,47.8126382793057
562,1436802845095,44.4288635818028
563,1436802845603,42.9925976830482
564,1436802846088,46.515395305754
565,1436802846581,58.8507715109005
566,1436802847068,44.9467628624328
567,1436802847567,42.997762430365
568,1436802848079,43.9667151518399
569,1436802848590,53.1870793467501
570,1436802849080,54.8158385648549
571,1436802849570,47.7300785424251
572,1436802850071,48.5017974489921
573,1436802850567,47.3765196672053
574,1436802851032,46.4029100797535
575,1436802851543,55.373463293174
