id,attr_time,attr_db
1,1436802576474,15.0647470925231
2,1436802577224,12.3984778894699
3,1436802577982,3.59640245023219
4,1436802578708,13.980829359074
5,1436802579369,33.6562057991371
6,1436802580108,4.29120985708406
7,1436802580854,16.0888747496624
8,1436802581590,4.21980460765488
9,1436802582327,20.8407707194311
10,1436802583056,43.7115886917679
11,1436802583744,40.6641269196892
12,1436802584463,64.8911431807034
13,1436802585153,56.9579745672773
14,1436802585789,30.809091151276
15,1436802586483,41.267605906316
16,1436802587256,43.4927875410575
17,1436802587996,44.8205914684115
18,1436802588636,36.4289490690449
19,1436802589420,33.3796112016326
20,1436802590158,31.6404527281926
21,1436802590932,41.3976785442139
22,1436802591680,38.1859970628899
23,1436802592457,32.8321178023124
24,1436802593211,40.3713031569409
25,1436802593939,71.2198613076781
26,1436802594630,36.6547743786362
27,1436802595280,22.1297454215766
28,1436802596984,33.3749094274104
29,1436802597610,22.4592409040316
30,1436802598357,73.5185422063489
31,1436802599087,63.9449972400375
32,1436802599843,35.9911021879343
33,1436802600584,70.5265244096217
34,1436802601313,31.2705424110149
35,1436802602016,55.1843441800691
36,1436802602721,47.7274577241047
37,1436802603457,68.8011396808089
38,1436802604202,67.2881791174603
39,1436802604964,35.3737561611505
40,1436802605640,31.162945665574
41,1436802607200,65.9466617129961
42,1436802607958,75.0920602452768
43,1436802608681,51.6171483346313
44,1436802609402,48.344340246798
45,1436802610128,68.3397239123503
46,1436802610794,70.8244223990553
47,1436802611519,39.924409172583
48,1436802612254,59.6760148729531
49,1436802612949,60.9994562862414
50,1436802613534,67.866568871042
51,1436802614238,36.2943793985866
52,1436802614926,40.67570948006
53,1436802615523,58.5856906020637
54,1436802616197,21.3825239928882
55,1436802616967,17.1958992657462
56,1436802617717,39.5434996558626
57,1436802618420,59.5733930071726
58,1436802619104,32.5518865862381
59,1436802619832,46.6151964649859
60,1436802620500,51.5484253845311
61,1436802621923,40.3750995841324
62,1436802622714,52.1819578523074
63,1436802623463,37.7610202510039
64,1436802624209,27.4471335048947
65,1436802624962,51.3006042608177
66,1436802625719,44.5198153416258
67,1436802626458,48.9810311500135
68,1436802627218,61.8474624154261
69,1436802627987,55.0026060959439
70,1436802628742,42.33613524708
71,1436802630669,53.6584785531284
72,1436802631420,54.6456704265025
73,1436802632159,44.1321026763895
74,1436802632899,32.1033511974686
75,1436802633632,39.2304596470984
76,1436802634362,60.1950614679818
77,1436802635121,71.4181543232051
78,1436802635746,46.2814692420241
79,1436802636449,53.7509263070504
80,1436802637194,12.6494817937661
81,1436802637963,27.3078374224646
82,1436802638702,33.1256953990044
83,1436802639391,69.9407657859678
84,1436802640059,42.5533308958442
85,1436802640798,44.6222652145232
86,1436802641512,61.5351077987894
87,1436802642271,54.8875224245811
88,1436802643029,66.1729884412858
89,1436802643679,56.6222833771869
90,1436802644419,55.1191006238404
91,1436802645139,71.9508708982898
92,1436802645884,69.2374131334305
93,1436802646635,42.4726122883544
94,1436802647362,68.0702332793734
95,1436802648134,72.412674539037
96,1436802648912,35.9179480338136
97,1436802649634,40.7266097497807
98,1436802650398,48.3149061171065
99,1436802651154,58.8071624758996
100,1436802651897,73.7489636683546
101,1436802652626,43.7533747497758
102,1436802653357,25.3837675771966
103,1436802654141,51.7146457062052
104,1436802654893,44.2625221054471
105,1436802655566,17.1048288117512
106,1436802656252,52.587913942961
107,1436802657012,36.5604911617345
108,1436802657753,19.9275136712755
109,1436802658492,48.8728217434767
110,1436802659258,35.4460392588477
111,1436802659993,44.2216417377116
112,1436802660792,41.6449005907323
113,1436802661563,39.8955201296601
114,1436802662139,34.254784744067
115,1436802662685,39.339045233801
116,1436802663249,33.2619999814594
117,1436802663839,43.412300882528
118,1436802664497,45.9203740032723
119,1436802665268,4.855185092469
120,1436802666061,35.7410188872087
121,1436802666725,41.7594172245178
122,1436802667305,72.0341182344172
123,1436802667860,67.7078316086551
124,1436802668410,35.522861398558
125,1436802669799,50.4844721345212
126,1436802670483,66.3535701681329
127,1436802671174,43.2146820354308
128,1436802671917,72.2484702844731
129,1436802672640,54.5648141105527
130,1436802673236,35.8300972246501
131,1436802673827,25.8358146912887
132,1436802674387,58.4016686724809
133,1436802674938,66.7791832344705
134,1436802675516,56.5043524574652
135,1436802676252,44.1569726572094
136,1436802676983,46.5566690812414
137,1436802677549,40.7786941590209
138,1436802678099,38.2299841093677
139,1436802678666,38.6357694237503
140,1436802679245,20.8401951868785
141,1436802680758,42.1490840912245
142,1436802681482,44.1673866996416
143,1436802682193,69.676298951344
144,1436802682980,40.1090117506494
145,1436802683574,54.9149702871285
146,1436802684149,40.0736266382791
147,1436802684732,43.5981853967071
148,1436802685317,47.9255498805721
149,1436802685921,46.2748191863937
150,1436802686597,30.47914969033
151,1436802687391,17.0770917909816
152,1436802688162,70.3390797158083
153,1436802688757,64.645042728726
154,1436802689395,51.9072471899376
155,1436802689979,67.2001203683695
156,1436802690585,71.035971615068
157,1436802692048,69.479512440597
158,1436802692809,53.7937362669361
159,1436802693537,19.1355799349423
160,1436802694286,25.0028347634598
161,1436802695010,51.71088972077
162,1436802695662,32.1998017235093
163,1436802696381,23.8859064011913
164,1436802697047,41.1821650782743
165,1436802697739,43.51544649928
166,1436802698471,36.7543351480534
167,1436802699194,28.8420275606941
168,1436802699937,39.1779339988408
169,1436802700608,21.9670922713582
170,1436802701339,72.2329379589599
171,1436802702014,21.2265748143096
172,1436802702714,12.457053077707
173,1436802703444,73.2471505967321
174,1436802704177,72.9481546321901
175,1436802704958,72.8974358648186
176,1436802705688,45.7624415241926
177,1436802706421,49.8413862612713
178,1436802707106,53.7858338112523
179,1436802707828,71.2562637782512
180,1436802708505,70.6253158819226
181,1436802709270,75.7929209449616
182,1436802710010,62.7489931737547
183,1436802710754,23.8460140755486
184,1436802711476,38.2756798391381
185,1436802712204,39.4946497243565
186,1436802712935,50.0476773608867
187,1436802713673,59.1491243601661
188,1436802714423,73.6119496462256
189,1436802715159,35.6139906840657
190,1436802715864,52.7525941574503
191,1436802716532,35.8797509123185
192,1436802717276,40.7540212573344
193,1436802717991,51.970832737898
194,1436802718731,48.5066734268071
195,1436802719375,40.0037323700081
196,1436802720073,57.0015885604003
197,1436802720795,70.7549322381753
198,1436802721425,25.1815304579762
199,1436802722101,40.5389112772719
200,1436802722838,72.0144204168269
201,1436802723571,69.6402259967439
202,1436802724307,69.6375410460538
203,1436802725070,70.6457804373261
204,1436802725859,65.3418731237745
205,1436802726584,69.4107881381881
206,1436802727328,27.5787330366493
207,1436802728079,42.3487478868682
208,1436802728813,52.2240640703757
209,1436802729543,36.016754102725
210,1436802730244,65.7319159010088
211,1436802731006,44.6160072259993
212,1436802731613,31.846609499842
213,1436802732392,36.5103910379328
214,1436802733119,31.1100912676535
215,1436802733884,46.1125480765172
216,1436802734624,18.8960597102669
217,1436802735339,37.3385819670208
218,1436802736113,37.5282767124773
219,1436802736824,45.0888394751016
220,1436802737544,34.0695996243582
221,1436802738213,23.9872894902022
222,1436802738951,71.9013402729612
223,1436802739661,67.1273337360611
224,1436802740381,50.5585043928898
225,1436802741099,28.1656729888663
226,1436802741914,51.7558420863032
227,1436802742628,63.5134685634102
228,1436802743296,26.6627698171516
229,1436802744038,55.3124595975217
230,1436802744768,42.780640160639
231,1436802745506,43.1253254436071
232,1436802746250,72.2025272675444
233,1436802746997,72.2940813739775
234,1436802747747,65.886668409373
235,1436802748504,61.3692439809509
236,1436802749239,72.6820661540799
237,1436802749976,62.7841746854934
238,1436802750676,45.8865027945729
239,1436802751445,61.3491156153974
240,1436802752092,68.3745542768223
241,1436802752882,53.0964006712151
242,1436802753597,65.744055124412
243,1436802754336,22.3059446771601
244,1436802755027,46.496929557502
245,1436802755668,36.8666082892534
246,1436802756476,26.7385376078551
247,1436802757127,62.4788441434359
248,1436802757861,55.4758863756918
249,1436802758628,73.9179702235259
250,1436802759362,54.1413982103381
251,1436802760110,66.3569629042083
252,1436802760850,54.4259169885837
253,1436802761571,31.3818948844266
254,1436802762230,41.4822128010369
255,1436802762951,36.1046473748805
256,1436802763678,52.4189660133039
257,1436802764406,68.5281531772513
258,1436802765126,62.8937819385303
259,1436802765853,43.2158302232195
260,1436802766496,55.4928124608718
261,1436802767229,37.4721253577521
262,1436802767902,71.9041671256412
263,1436802768531,63.3716026255652
264,1436802769209,55.888804722078
265,1436802769956,54.5875405419958
266,1436802770686,67.3721191298521
267,1436802771422,57.8606791028012
268,1436802772141,46.4166030425236
269,1436802772787,42.0588548825669
270,1436802773531,42.6431089301119
271,1436802774282,63.3062874555759
272,1436802775012,46.1868366101818
273,1436802775738,60.3943595616787
274,1436802776400,65.5284055488488
275,1436802777127,67.3646431974562
276,1436802777856,62.8485939512749
277,1436802778608,64.4889981733083
278,1436802779336,60.4560000655538
279,1436802780119,48.5838789754282
280,1436802780851,55.4084486159841
281,1436802781577,35.4002841829824
282,1436802782309,63.0129355570622
283,1436802782973,54.1710936517412
284,1436802783723,56.160864882147
285,1436802784463,34.3849049992408
286,1436802785219,45.1530957634474
287,1436802785965,46.2425605723637
288,1436802786744,49.2176101014451
289,1436802787507,54.2268217533487
290,1436802788164,60.4409512063966
291,1436802788776,72.0890365979051
292,1436802789460,51.590554351862
293,1436802790178,42.7925911021322
294,1436802790888,47.3081572603087
295,1436802791662,43.8152484163871
296,1436802792425,64.7378288884447
297,1436802793146,51.3487721164925
298,1436802793831,49.9772972926984
299,1436802794573,54.2051298942447
300,1436802795303,57.0740232188958
301,1436802796069,44.6617164186588
302,1436802796784,59.3735711706671
303,1436802797499,31.6666687989197
304,1436802798239,73.6236346547076
305,1436802798998,70.503284826195
306,1436802799680,41.1149411170308
307,1436802801079,39.9898798558183
308,1436802801799,37.6735699766138
309,1436802802539,58.7222288122967
310,1436802803283,23.7228767294913
311,1436802804073,29.4458580739589
312,1436802804716,47.0086556839989
313,1436802805453,41.6231304302271
314,1436802806185,60.4171011046584
315,1436802806964,69.2297125001227
316,1436802807718,42.3087237990625
317,1436802808371,44.1404750720901
318,1436802809125,59.9361672155621
319,1436802809829,43.9538673214084
320,1436802810591,26.570895001864
321,1436802811265,24.7068911480353
322,1436802811863,66.867428305487
323,1436802812515,60.6896208204113
324,1436802813213,50.7166714310526
325,1436802815190,33.7749407897595
326,1436802815788,42.756538047072
327,1436802816354,49.3741515633464
328,1436802816899,67.8964742645821
329,1436802817483,41.6941952120478
330,1436802818219,56.5208674076482
331,1436802818944,41.6395029690069
332,1436802819550,70.854657686389
333,1436802820163,48.6354682251953
334,1436802820732,50.6233920416267
335,1436802821301,38.6633962331719
336,1436802821854,31.0850366962666
337,1436802823339,53.1739194716373
338,1436802824097,61.4713111109985
339,1436802824847,50.6020798272218
340,1436802825614,42.6821017663539
341,1436802826195,39.3130131441974
342,1436802826751,48.3382499806184
343,1436802827304,46.3745769310134
344,1436802827849,31.1751255884091
345,1436802828493,36.7172645904411
346,1436802829220,47.5407377611965
347,1436802830126,45.4716019083847
348,1436802830699,32.4420859343423
349,1436802831246,51.319083046438
350,1436802831797,29.6755877715353
351,1436802832916,50.7229147450914
352,1436802833647,41.3570822735132
353,1436802834384,54.1150355607301
354,1436802835116,35.3050201478312
355,1436802835858,53.8059511600584
356,1436802836557,22.7915642800764
357,1436802837969,35.1644554373051
358,1436802838537,32.2911834260187
359,1436802839108,39.9287157439442
360,1436802839735,51.3815772556196
361,1436802840323,51.6403020709036
362,1436802840958,59.0000517329498
363,1436802841699,42.1896169717365
364,1436802842531,51.628356268223
365,1436802843211,62.7098955943317
366,1436802843786,55.455458819887
367,1436802844344,62.5197542996737
368,1436802844909,54.2530811849809
369,1436802845469,42.2591838503962
370,1436802846854,73.4772784095354
371,1436802847587,33.1941422874119
372,1436802848323,37.2026983178267
373,1436802849078,41.6556425413146
374,1436802850911,38.9096879694732
375,1436802851563,57.9346628383802
376,1436802852283,36.5444968647768
377,1436802853002,61.1408661191226
378,1436802853706,49.9676924201075
379,1436802854383,41.4252067953612
380,1436802855113,22.0752388920814
381,1436802855851,51.0317351402652
382,1436802856607,58.4961130899882
383,1436802857240,54.1803227370341
384,1436802857862,44.1463180948123
385,1436802858561,66.3062699418174
386,1436802859324,35.7376163898056
387,1436802860061,41.2640363921299
388,1436802860786,27.0601313512666
389,1436802861452,34.7376222382208
390,1436802862181,50.3673213926646
391,1436802862914,32.2738619593508
392,1436802863638,37.8205991710433
393,1436802864367,40.0375656621026
394,1436802865096,27.0905646771208
395,1436802865820,48.345864816289
396,1436802866566,35.484755241421
397,1436802867309,50.7967820683764
398,1436802868014,27.1472418054626
399,1436802868660,37.9163828578801
400,1436802869417,56.5216643468656
401,1436802870163,67.9372627482775
402,1436802870925,22.6193062733263
403,1436802871793,73.9379511546559
404,1436802872461,69.5867818140487
405,1436802873126,61.5606023939604
406,1436802873799,53.966754087692
407,1436802874534,36.9868601874085
408,1436802875289,33.8771835764489
409,1436802876026,50.2703165079512
410,1436802876791,19.8811234859515
411,1436802877532,58.7511137605487
412,1436802878105,44.4106491935353
413,1436802878737,64.8984668867204
414,1436802879356,45.8976195204597
415,1436802879996,21.8742785186043
416,1436802880739,46.2009896347605
417,1436802881497,56.6187391960952
418,1436802882201,47.5568486114628
419,1436802882942,52.5116853424956
420,1436802883712,73.0174871853436
421,1436802884424,33.6893669090037
422,1436802885162,35.0320923020672
423,1436802885888,58.8877510798131
424,1436802886634,26.1091293873807
425,1436802887366,48.6464600712758
426,1436802888104,53.0526443950822
427,1436802888753,53.0648496391085
428,1436802889495,61.9162925940376
429,1436802890229,51.8917061675184
430,1436802890965,53.2579648725597
431,1436802891689,67.7426602444892
432,1436802892282,45.5464507800407
433,1436802892974,46.8626289645322
434,1436802893713,46.1049840462796
435,1436802894441,46.2106305146734
436,1436802895174,37.5243074079319
437,1436802895906,46.2779176032059
438,1436802896633,61.9858478629023
439,1436802897366,37.6720214724921
440,1436802898055,50.1213403663978
441,1436802898739,39.502994293138
442,1436802899475,33.1397835659725
443,1436802900210,36.0962871265725
444,1436802900969,19.5701736771936
445,1436802901631,70.6069465537928
446,1436802902269,50.4328618018584
447,1436802903058,57.2181597259811
448,1436802903799,52.433540214648
449,1436802904537,65.8435043486724
450,1436802905286,61.8818846440561
451,1436802906016,55.0207375822976
452,1436802906773,44.1820118381044
453,1436802907514,58.6017649436312
454,1436802908233,54.1961203629238
455,1436802908984,54.7936701296133
456,1436802909696,69.7095476344427
457,1436802910432,57.5766732697285
458,1436802911208,71.0172784832795
459,1436802911969,47.1047604307373
460,1436802912615,71.1948784565844
461,1436802913369,73.9402831194802
462,1436802914141,73.8834599844244
463,1436802914880,69.6377813210735
464,1436802915613,63.1898770588896
465,1436802916344,43.9080434497465
466,1436802917105,65.664079430569
467,1436802917880,23.6906696645328
468,1436802918507,50.7776927541745
469,1436802919180,57.9837781774505
470,1436802919899,46.919909286997
471,1436802920523,59.4663024409234
472,1436802921219,71.5263686083071
473,1436802921956,51.4070587325531
474,1436802922714,52.3062584403969
475,1436802923446,39.9170033120201
476,1436802924170,38.4468286126769
477,1436802924857,45.9102841147189
478,1436802925607,49.5814802029295
479,1436802926352,74.9599010882552
480,1436802927097,55.419630200418
481,1436802927842,73.6653558972236
482,1436802928598,66.073995618184
483,1436802929338,38.2647941156855
484,1436802930068,43.5704391330746
485,1436802930730,68.7136377159738
486,1436802931489,67.6346224080467
487,1436802932307,51.3294320548364
488,1436802933056,39.5395699463957
489,1436802933720,33.5944980389465
490,1436802934450,46.609422269305
491,1436802935188,32.9133858683033
492,1436802935929,21.8927557967664
493,1436802936665,69.0140485342915
494,1436802937422,55.0052990907631
495,1436802938230,42.5729145370332
496,1436802938964,55.9283349813951
497,1436802939705,71.8075111592367
498,1436802940434,61.8301450014502
499,1436802941079,70.9683527548173
500,1436802941777,66.5110876163597
501,1436802942496,66.6107063580702
502,1436802943290,58.0689026010358
503,1436802944043,61.8907085495135
504,1436802944717,64.3676446148593
505,1436802945545,55.0166512495495
506,1436802946236,55.2230502331022
507,1436802946955,32.9118352713696
508,1436802947684,67.2501491277731
509,1436802948454,61.4981249320988
510,1436802949190,52.1776953134148
511,1436802949919,68.0361945406826
512,1436802950687,71.2318673603812
513,1436802951377,49.4765064800341
514,1436802952004,70.9669948238183
515,1436802952700,24.8456243373855
516,1436802953450,17.1816369697993
517,1436802954206,34.0045065872585
518,1436802954966,49.2747002538733
519,1436802955630,55.7183491841534
520,1436802956361,49.9923801346574
521,1436802957094,42.433633730586
522,1436802957849,48.6314763667363
523,1436802958555,54.9386587495829
524,1436802959227,73.1511230901439
525,1436802959964,28.7848798749466
526,1436802960706,64.5583378363482
527,1436802961423,56.4530903619159
528,1436802962100,28.1406128985439
529,1436802962766,46.2287674934948
530,1436802963493,50.6769864400486
531,1436802964234,32.7973526415307
532,1436802964983,47.363993534837
533,1436802965722,51.1026695719193
534,1436802966452,54.4790460231336
535,1436802967148,47.9379312293794
536,1436802967822,72.3764469719529
537,1436802968597,43.268678103456
538,1436802969313,50.0941991117166
539,1436802970047,46.7923818980717
540,1436802970763,64.4359941289368
541,1436802971502,49.0143020169114
542,1436802972238,23.2653450028853
543,1436802972974,51.952386949308
544,1436802973617,64.1049078164569
545,1436802974311,51.4817759677512
546,1436802974952,72.4635543193162
547,1436802975647,64.861520337011
548,1436802976376,49.9230678099182
549,1436802977172,70.5153215094464
550,1436802977929,52.653663547512
551,1436802978507,59.4701141156069
552,1436802979119,38.6159926792501
553,1436802979877,74.1969867616554
554,1436802980604,70.7508166710385
555,1436802981357,57.1101099250595
556,1436802982143,66.3104587616702
557,1436802982858,71.1160827988382
558,1436802983532,41.3195397749922
559,1436802984211,65.6284099374442
560,1436802984978,70.7221929248261
561,1436802985708,72.6287862030629
562,1436802986437,68.7567667073638
563,1436802987253,64.2991308392845
564,1436802987977,35.3206327680146
565,1436802988731,48.2788238859914
566,1436802989326,43.7179277361019
567,1436802990001,32.0007887792182
568,1436802990750,17.7788898501871
569,1436802991474,71.4319950468629
570,1436802992207,74.7987050367517
571,1436802993002,65.8896912078855
572,1436802993657,70.2134960150052
573,1436802994362,32.3331141180057
574,1436802994999,62.1225423828602
575,1436802995730,23.597155996637
