id,attr_time,attr_light
1,1436622551010,386.0
2,1436622551032,386.0
3,1436622551049,385.0
4,1436622551070,385.0
5,1436622551090,385.0
6,1436622551113,385.0
7,1436622551134,385.0
8,1436622551155,385.0
9,1436622551170,385.0
10,1436622551190,385.0
11,1436622551212,385.0
12,1436622551233,385.0
13,1436622551331,385.0
14,1436622551332,384.0
15,1436622551333,384.0
16,1436622551334,385.0
17,1436622551335,385.0
18,1436622551349,385.0
19,1436622551375,386.0
20,1436622551389,386.0
21,1436622551410,386.0
22,1436622551430,386.0
23,1436622551450,386.0
24,1436622551470,386.0
25,1436622551490,387.0
26,1436622551513,387.0
27,1436622551531,389.0
28,1436622551549,390.0
29,1436622551570,390.0
30,1436622551589,391.0
31,1436622551611,391.0
32,1436622551632,392.0
33,1436622551651,392.0
34,1436622551670,394.0
35,1436622551689,394.0
36,1436622551710,394.0
37,1436622551736,394.0
38,1436622551751,395.0
39,1436622551770,396.0
40,1436622551804,396.0
41,1436622551830,396.0
42,1436622551831,396.0
43,1436622551850,398.0
44,1436622551874,398.0
45,1436622551892,401.0
46,1436622551912,401.0
47,1436622551935,403.0
48,1436622551952,403.0
49,1436622551971,404.0
50,1436622552001,405.0
51,1436622552071,405.0
52,1436622552072,406.0
53,1436622552073,406.0
54,1436622552074,407.0
55,1436622552093,407.0
56,1436622552115,407.0
57,1436622552130,407.0
58,1436622552152,407.0
59,1436622552184,407.0
60,1436622552192,407.0
61,1436622552215,408.0
62,1436622552232,408.0
63,1436622552252,407.0
64,1436622552273,407.0
65,1436622552293,406.0
66,1436622552312,406.0
67,1436622552332,405.0
68,1436622552351,405.0
69,1436622552379,404.0
70,1436622552425,404.0
71,1436622552435,403.0
72,1436622552436,402.0
73,1436622552450,402.0
74,1436622552475,402.0
75,1436622552490,402.0
76,1436622552510,399.0
77,1436622552537,399.0
78,1436622552553,400.0
79,1436622552580,400.0
80,1436622552616,399.0
81,1436622552617,399.0
82,1436622552634,399.0
83,1436622552656,399.0
84,1436622552680,399.0
85,1436622552732,401.0
86,1436622552733,401.0
87,1436622552736,401.0
88,1436622552757,401.0
89,1436622552774,401.0
90,1436622552789,401.0
91,1436622552841,399.0
92,1436622552842,398.0
93,1436622552850,398.0
94,1436622552870,398.0
95,1436622552890,398.0
96,1436622552909,398.0
97,1436622552929,398.0
98,1436622552949,398.0
99,1436622552969,398.0
100,1436622552989,397.0
101,1436622553009,397.0
102,1436622553029,397.0
103,1436622553049,396.0
104,1436622553069,396.0
105,1436622553089,397.0
106,1436622553109,397.0
107,1436622553129,398.0
108,1436622553150,398.0
109,1436622553172,398.0
110,1436622553192,398.0
111,1436622553211,398.0
112,1436622553231,398.0
113,1436622553252,398.0
114,1436622553272,396.0
115,1436622553291,396.0
116,1436622553312,394.0
117,1436622553331,394.0
118,1436622553355,394.0
119,1436622553419,394.0
120,1436622553420,395.0
121,1436622553421,395.0
122,1436622553433,396.0
123,1436622553450,396.0
124,1436622553475,395.0
125,1436622553490,395.0
126,1436622553510,395.0
127,1436622553530,395.0
128,1436622553550,395.0
129,1436622553572,392.0
130,1436622553592,392.0
131,1436622553612,391.0
132,1436622553631,391.0
133,1436622553650,392.0
134,1436622553671,392.0
135,1436622553692,391.0
136,1436622553713,391.0
137,1436622553733,391.0
138,1436622553759,391.0
139,1436622553773,391.0
140,1436622553794,393.0
141,1436622553812,393.0
142,1436622553832,394.0
143,1436622553851,394.0
144,1436622553872,394.0
145,1436622553893,392.0
146,1436622553915,392.0
147,1436622553933,394.0
148,1436622553952,394.0
149,1436622553972,393.0
150,1436622553992,393.0
151,1436622554021,392.0
152,1436622554094,392.0
153,1436622554095,393.0
154,1436622554096,393.0
155,1436622554097,393.0
156,1436622554113,394.0
157,1436622554137,394.0
158,1436622554153,395.0
159,1436622554173,395.0
160,1436622554193,397.0
161,1436622554212,397.0
162,1436622554233,397.0
163,1436622554252,397.0
164,1436622554273,397.0
165,1436622554292,397.0
166,1436622554313,397.0
167,1436622554334,399.0
168,1436622554352,399.0
169,1436622554372,400.0
170,1436622554392,400.0
171,1436622554412,403.0
172,1436622554432,403.0
173,1436622554452,407.0
174,1436622554475,407.0
175,1436622554494,409.0
176,1436622554515,409.0
177,1436622554533,411.0
178,1436622554558,412.0
179,1436622554573,412.0
180,1436622554598,414.0
181,1436622554612,414.0
182,1436622554635,415.0
183,1436622554653,415.0
184,1436622554674,416.0
185,1436622554692,416.0
186,1436622554817,420.0
187,1436622554818,420.0
188,1436622554819,423.0
189,1436622554820,427.0
190,1436622554821,427.0
191,1436622554822,430.0
192,1436622554832,430.0
193,1436622554859,432.0
194,1436622554894,432.0
195,1436622554895,437.0
196,1436622554917,437.0
197,1436622554933,439.0
198,1436622554957,442.0
199,1436622554976,442.0
200,1436622554994,443.0
201,1436622555013,443.0
202,1436622555032,444.0
203,1436622555052,444.0
204,1436622555073,446.0
205,1436622555094,446.0
206,1436622555114,446.0
207,1436622555134,446.0
208,1436622555152,449.0
209,1436622555177,452.0
210,1436622555195,452.0
211,1436622555214,456.0
212,1436622555233,456.0
213,1436622555253,459.0
214,1436622555273,459.0
215,1436622555293,460.0
216,1436622555341,460.0
217,1436622555342,461.0
218,1436622555352,461.0
219,1436622555375,462.0
220,1436622555393,465.0
221,1436622555415,465.0
222,1436622555485,469.0
223,1436622555486,469.0
224,1436622555487,470.0
225,1436622555542,470.0
226,1436622555543,474.0
227,1436622555544,474.0
228,1436622555562,476.0
229,1436622555579,476.0
230,1436622555593,476.0
231,1436622555614,475.0
232,1436622555664,475.0
233,1436622555665,473.0
234,1436622555673,473.0
235,1436622555695,469.0
236,1436622555715,469.0
237,1436622555736,465.0
238,1436622555754,465.0
239,1436622555773,461.0
240,1436622555793,461.0
241,1436622555816,459.0
242,1436622555836,458.0
243,1436622555853,458.0
244,1436622555875,453.0
245,1436622555894,453.0
246,1436622555913,451.0
247,1436622555935,451.0
248,1436622555957,453.0
249,1436622555976,453.0
250,1436622555995,454.0
251,1436622556016,454.0
252,1436622556038,453.0
253,1436622556055,454.0
254,1436622556074,454.0
255,1436622556094,452.0
256,1436622556114,452.0
257,1436622556137,451.0
258,1436622556157,451.0
259,1436622556177,453.0
260,1436622556195,453.0
261,1436622556359,454.0
262,1436622556360,455.0
263,1436622556361,455.0
264,1436622556362,453.0
265,1436622556363,453.0
266,1436622556364,453.0
267,1436622556365,453.0
268,1436622556366,454.0
269,1436622556375,454.0
270,1436622556394,454.0
271,1436622556414,454.0
272,1436622556449,454.0
273,1436622556453,447.0
274,1436622556475,447.0
275,1436622556495,444.0
276,1436622556516,444.0
277,1436622556548,445.0
278,1436622556559,445.0
279,1436622556580,446.0
280,1436622556598,446.0
281,1436622556615,446.0
282,1436622556634,446.0
283,1436622556654,442.0
284,1436622556689,437.0
285,1436622556694,437.0
286,1436622556726,431.0
287,1436622556737,431.0
288,1436622556757,429.0
289,1436622556777,429.0
290,1436622556795,426.0
291,1436622556814,426.0
292,1436622556837,423.0
293,1436622556857,423.0
294,1436622556877,421.0
295,1436622556898,418.0
296,1436622556914,418.0
297,1436622556934,418.0
298,1436622556957,418.0
299,1436622556974,415.0
300,1436622556998,415.0
301,1436622557019,413.0
302,1436622557033,413.0
303,1436622557053,410.0
304,1436622557074,410.0
305,1436622557098,406.0
306,1436622557114,405.0
307,1436622557134,405.0
308,1436622557157,406.0
309,1436622557175,406.0
310,1436622557194,407.0
311,1436622557217,407.0
312,1436622557234,404.0
313,1436622557258,404.0
314,1436622557278,401.0
315,1436622557296,398.0
316,1436622557315,398.0
317,1436622557335,398.0
318,1436622557359,398.0
319,1436622557377,399.0
320,1436622557398,399.0
321,1436622557417,400.0
322,1436622557437,400.0
323,1436622557456,400.0
324,1436622557474,400.0
325,1436622557494,400.0
326,1436622557515,399.0
327,1436622557538,399.0
328,1436622557557,396.0
329,1436622557574,396.0
330,1436622557595,393.0
331,1436622557664,393.0
332,1436622557665,394.0
333,1436622557666,394.0
334,1436622557675,393.0
335,1436622557695,393.0
336,1436622557715,392.0
337,1436622557739,391.0
338,1436622557756,391.0
339,1436622557776,390.0
340,1436622557799,390.0
341,1436622557816,389.0
342,1436622557838,389.0
343,1436622557855,390.0
344,1436622557878,390.0
345,1436622557898,391.0
346,1436622557918,391.0
347,1436622557940,390.0
348,1436622557959,389.0
349,1436622557977,389.0
350,1436622557998,388.0
351,1436622558015,388.0
352,1436622558041,386.0
353,1436622558057,386.0
354,1436622558080,387.0
355,1436622558101,387.0
356,1436622558121,387.0
357,1436622558140,387.0
358,1436622558157,385.0
359,1436622558177,385.0
360,1436622558195,385.0
361,1436622558220,387.0
362,1436622558242,387.0
363,1436622558261,388.0
364,1436622558278,388.0
365,1436622558305,387.0
366,1436622558377,387.0
367,1436622558378,387.0
368,1436622558379,385.0
369,1436622558380,385.0
370,1436622558399,385.0
371,1436622558421,385.0
372,1436622558436,385.0
373,1436622558456,385.0
374,1436622558491,384.0
375,1436622558498,384.0
376,1436622558522,384.0
377,1436622558542,384.0
378,1436622558564,383.0
379,1436622558579,382.0
380,1436622558598,382.0
381,1436622558616,382.0
382,1436622558638,382.0
383,1436622558658,381.0
384,1436622558679,381.0
385,1436622558699,380.0
386,1436622558719,380.0
387,1436622558740,379.0
388,1436622558758,379.0
389,1436622558777,378.0
390,1436622558798,377.0
391,1436622558817,377.0
392,1436622558837,377.0
393,1436622558857,377.0
394,1436622558877,378.0
395,1436622558897,378.0
396,1436622558916,378.0
397,1436622558938,378.0
398,1436622558956,380.0
399,1436622558978,380.0
400,1436622558999,382.0
401,1436622559018,383.0
402,1436622559038,383.0
403,1436622559147,384.0
404,1436622559148,384.0
405,1436622559149,385.0
406,1436622559150,385.0
407,1436622559151,386.0
408,1436622559158,386.0
409,1436622559187,384.0
410,1436622559197,384.0
411,1436622559217,382.0
412,1436622559237,381.0
413,1436622559260,381.0
414,1436622559278,381.0
415,1436622559300,381.0
416,1436622559317,381.0
417,1436622559338,381.0
418,1436622559363,383.0
419,1436622559381,383.0
420,1436622559400,384.0
421,1436622559419,384.0
422,1436622559438,383.0
423,1436622559457,382.0
424,1436622559478,382.0
425,1436622559502,384.0
426,1436622559518,384.0
427,1436622559539,385.0
428,1436622559564,385.0
429,1436622559590,385.0
430,1436622559602,385.0
431,1436622559618,383.0
432,1436622559636,381.0
433,1436622559657,381.0
434,1436622559677,381.0
435,1436622559701,381.0
436,1436622559718,380.0
437,1436622559737,380.0
438,1436622559757,381.0
439,1436622559786,381.0
440,1436622559820,381.0
441,1436622559821,381.0
442,1436622559844,380.0
443,1436622559861,379.0
444,1436622559878,379.0
445,1436622559898,378.0
446,1436622559918,378.0
447,1436622559937,375.0
448,1436622559957,375.0
449,1436622559977,376.0
450,1436622559998,376.0
451,1436622560025,377.0
452,1436622560038,377.0
453,1436622560063,381.0
454,1436622560077,385.0
455,1436622560100,385.0
456,1436622560118,386.0
457,1436622560138,386.0
458,1436622560157,385.0
459,1436622560178,385.0
460,1436622560200,384.0
461,1436622560217,384.0
462,1436622560237,385.0
463,1436622560256,385.0
464,1436622560276,385.0
465,1436622560297,382.0
466,1436622560316,382.0
467,1436622560337,380.0
468,1436622560357,380.0
469,1436622560377,378.0
470,1436622560397,378.0
471,1436622560417,375.0
472,1436622560437,375.0
473,1436622560458,374.0
474,1436622560478,374.0
475,1436622560497,370.0
476,1436622560521,367.0
477,1436622560537,367.0
478,1436622560557,366.0
479,1436622560577,366.0
480,1436622560598,363.0
481,1436622560617,363.0
482,1436622560638,360.0
483,1436622560657,360.0
484,1436622560678,356.0
485,1436622560698,353.0
486,1436622560717,353.0
487,1436622560737,348.0
488,1436622560757,348.0
489,1436622560777,342.0
490,1436622560799,342.0
491,1436622560817,335.0
492,1436622560838,335.0
493,1436622560857,328.0
494,1436622560877,328.0
495,1436622560899,321.0
496,1436622560917,315.0
497,1436622560937,315.0
498,1436622560957,313.0
499,1436622560977,313.0
500,1436622560998,314.0
501,1436622561017,314.0
502,1436622561037,319.0
503,1436622561057,319.0
504,1436622561077,327.0
505,1436622561098,327.0
506,1436622561117,334.0
507,1436622561137,339.0
508,1436622561162,339.0
509,1436622561177,334.0
510,1436622561198,334.0
511,1436622561219,320.0
512,1436622561239,320.0
513,1436622561258,302.0
514,1436622561278,302.0
515,1436622561298,279.0
516,1436622561320,279.0
517,1436622561340,255.0
518,1436622561358,236.0
519,1436622561378,236.0
520,1436622561400,221.0
521,1436622561418,221.0
522,1436622561438,209.0
523,1436622561458,209.0
524,1436622561478,199.0
525,1436622561499,199.0
526,1436622561521,191.0
527,1436622561539,191.0
528,1436622561558,182.0
529,1436622561580,177.0
530,1436622561598,177.0
531,1436622561618,173.0
532,1436622561641,173.0
533,1436622561658,170.0
534,1436622561679,170.0
535,1436622561699,169.0
536,1436622561718,169.0
537,1436622561744,167.0
538,1436622561758,167.0
539,1436622561778,165.0
540,1436622561799,162.0
541,1436622561818,162.0
542,1436622561848,160.0
543,1436622561864,160.0
544,1436622561881,157.0
545,1436622561898,157.0
546,1436622561920,158.0
547,1436622561938,158.0
548,1436622561958,162.0
549,1436622561979,165.0
550,1436622561998,165.0
551,1436622562018,168.0
552,1436622562040,168.0
553,1436622562058,169.0
554,1436622562079,169.0
555,1436622562098,169.0
556,1436622562118,169.0
557,1436622562138,173.0
558,1436622562167,173.0
559,1436622562183,169.0
560,1436622562198,167.0
561,1436622562218,167.0
562,1436622562239,171.0
563,1436622562258,171.0
564,1436622562278,173.0
565,1436622562298,173.0
566,1436622562318,169.0
567,1436622562338,169.0
568,1436622562358,168.0
569,1436622562378,168.0
570,1436622562400,174.0
571,1436622562419,186.0
572,1436622562440,186.0
573,1436622562458,196.0
574,1436622562485,196.0
575,1436622562510,202.0
576,1436622562521,202.0
577,1436622562539,207.0
578,1436622562561,207.0
579,1436622562579,210.0
580,1436622562600,210.0
581,1436622562619,216.0
582,1436622562639,222.0
583,1436622562659,222.0
584,1436622562681,228.0
585,1436622562700,228.0
586,1436622562719,235.0
587,1436622562739,235.0
588,1436622562759,242.0
589,1436622562779,242.0
590,1436622562799,251.0
591,1436622562819,251.0
592,1436622562839,257.0
593,1436622562859,258.0
594,1436622562879,258.0
595,1436622562900,254.0
596,1436622562919,254.0
597,1436622562939,250.0
598,1436622562960,250.0
599,1436622562979,246.0
600,1436622562999,246.0
601,1436622563019,242.0
602,1436622563040,240.0
603,1436622563061,240.0
604,1436622563080,241.0
605,1436622563101,241.0
606,1436622563121,241.0
607,1436622563139,241.0
608,1436622563164,240.0
609,1436622563188,240.0
610,1436622563199,241.0
611,1436622563220,241.0
612,1436622563241,243.0
613,1436622563261,244.0
614,1436622563279,244.0
615,1436622563300,240.0
616,1436622563320,240.0
617,1436622563342,237.0
618,1436622563361,237.0
619,1436622563382,237.0
620,1436622563403,237.0
621,1436622563420,240.0
622,1436622563440,240.0
623,1436622563459,242.0
624,1436622563481,241.0
625,1436622563501,241.0
626,1436622563521,240.0
627,1436622563540,240.0
628,1436622563564,239.0
629,1436622563582,239.0
630,1436622563602,235.0
631,1436622563620,235.0
632,1436622563641,236.0
633,1436622563661,236.0
634,1436622563681,243.0
635,1436622563705,251.0
636,1436622563723,251.0
637,1436622563742,256.0
638,1436622563761,256.0
639,1436622563781,259.0
640,1436622563802,259.0
641,1436622563871,263.0
642,1436622563872,263.0
643,1436622563873,269.0
644,1436622563892,269.0
645,1436622563901,273.0
646,1436622563924,278.0
647,1436622563942,278.0
648,1436622563961,286.0
649,1436622563981,286.0
650,1436622564001,293.0
651,1436622564022,293.0
652,1436622564046,296.0
653,1436622564061,296.0
654,1436622564083,296.0
655,1436622564102,296.0
656,1436622564122,294.0
657,1436622564141,289.0
658,1436622564161,289.0
659,1436622564182,283.0
660,1436622564201,283.0
661,1436622564222,278.0
662,1436622564243,278.0
663,1436622564262,276.0
664,1436622564288,276.0
665,1436622564302,276.0
666,1436622564328,277.0
667,1436622564343,277.0
668,1436622564362,276.0
669,1436622564382,276.0
670,1436622564402,277.0
671,1436622564422,277.0
672,1436622564443,276.0
673,1436622564462,276.0
674,1436622564481,277.0
675,1436622564508,277.0
676,1436622564524,278.0
677,1436622564652,278.0
678,1436622564653,278.0
679,1436622564654,278.0
680,1436622564655,278.0
681,1436622564656,278.0
682,1436622564657,278.0
683,1436622564684,277.0
684,1436622564685,277.0
685,1436622564703,277.0
686,1436622564742,277.0
687,1436622564743,278.0
688,1436622564764,279.0
689,1436622564783,279.0
690,1436622564802,280.0
691,1436622564831,280.0
692,1436622564842,280.0
693,1436622564862,280.0
694,1436622564883,279.0
695,1436622564903,279.0
696,1436622564923,278.0
697,1436622564942,278.0
698,1436622564962,277.0
699,1436622564984,277.0
700,1436622565003,277.0
701,1436622565023,276.0
702,1436622565045,276.0
703,1436622565064,273.0
704,1436622565084,273.0
705,1436622565104,270.0
706,1436622565123,270.0
707,1436622565142,268.0
708,1436622565162,268.0
709,1436622565185,267.0
710,1436622565206,267.0
711,1436622565224,267.0
712,1436622565243,268.0
713,1436622565262,268.0
714,1436622565284,269.0
715,1436622565394,269.0
716,1436622565395,272.0
717,1436622565396,272.0
718,1436622565397,274.0
719,1436622565398,279.0
720,1436622565408,279.0
721,1436622565422,283.0
722,1436622565442,283.0
723,1436622565463,287.0
724,1436622565525,287.0
725,1436622565526,290.0
726,1436622565527,290.0
727,1436622565554,293.0
728,1436622565563,293.0
729,1436622565584,295.0
730,1436622565603,296.0
731,1436622565622,296.0
732,1436622565644,296.0
733,1436622565664,296.0
734,1436622565683,295.0
735,1436622565702,295.0
736,1436622565724,292.0
737,1436622565745,292.0
738,1436622565764,290.0
739,1436622565783,290.0
740,1436622565803,288.0
741,1436622565824,287.0
742,1436622565843,287.0
743,1436622565861,284.0
744,1436622565884,284.0
745,1436622565903,279.0
746,1436622565924,279.0
747,1436622565944,275.0
748,1436622565964,275.0
749,1436622565984,274.0
750,1436622566002,274.0
751,1436622566028,276.0
752,1436622566059,279.0
753,1436622566063,279.0
754,1436622566086,279.0
755,1436622566104,279.0
756,1436622566122,280.0
757,1436622566142,280.0
758,1436622566165,283.0
759,1436622566182,283.0
760,1436622566203,287.0
761,1436622566226,287.0
762,1436622566247,288.0
763,1436622566263,289.0
764,1436622566285,289.0
765,1436622566304,290.0
766,1436622566325,290.0
767,1436622566345,293.0
768,1436622566363,293.0
769,1436622566384,296.0
770,1436622566405,296.0
771,1436622566428,296.0
772,1436622566445,296.0
773,1436622566468,296.0
774,1436622566488,295.0
775,1436622566509,295.0
776,1436622566526,295.0
777,1436622566549,295.0
778,1436622566569,295.0
779,1436622566587,295.0
780,1436622566609,296.0
781,1436622566627,296.0
782,1436622566647,295.0
783,1436622566665,294.0
784,1436622566868,294.0
785,1436622566869,294.0
786,1436622566870,294.0
787,1436622566871,295.0
788,1436622566872,295.0
789,1436622566873,295.0
790,1436622566874,295.0
791,1436622566875,296.0
792,1436622566876,296.0
793,1436622566877,297.0
794,1436622566892,298.0
795,1436622566933,298.0
796,1436622566934,299.0
797,1436622566961,299.0
798,1436622566966,300.0
799,1436622566985,300.0
800,1436622567005,301.0
801,1436622567024,301.0
802,1436622567045,302.0
803,1436622567067,302.0
804,1436622567087,304.0
805,1436622567107,305.0
806,1436622567126,305.0
807,1436622567145,304.0
808,1436622567168,304.0
809,1436622567186,304.0
810,1436622567205,304.0
811,1436622567225,302.0
812,1436622567249,302.0
813,1436622567266,300.0
814,1436622567285,300.0
815,1436622567304,298.0
816,1436622567324,295.0
817,1436622567349,295.0
818,1436622567369,292.0
819,1436622567390,292.0
820,1436622567407,289.0
821,1436622567427,289.0
822,1436622567448,286.0
823,1436622567467,286.0
824,1436622567486,286.0
825,1436622567610,286.0
826,1436622567611,286.0
827,1436622567612,286.0
828,1436622567613,286.0
829,1436622567614,285.0
830,1436622567615,285.0
831,1436622567652,285.0
832,1436622567653,285.0
833,1436622567688,284.0
834,1436622567689,284.0
835,1436622567705,283.0
836,1436622567725,282.0
