id,attr_time,attr_x,attr_y,attr_z
1,1436803440028,-44.912,7.278,-20.48
2,1436803440043,-44.912,7.278,-20.48
3,1436803440066,-44.912,7.278,-20.48
4,1436803440083,-44.912,7.278,-20.48
5,1436803440104,-44.912,7.278,-20.48
6,1436803440126,-44.912,7.278,-20.48
7,1436803440197,-44.912,7.278,-20.48
8,1436803440209,-44.912,7.278,-20.48
9,1436803440210,-44.912,7.278,-20.48
10,1436803440211,-44.912,7.278,-20.48
11,1436803440224,-44.912,7.278,-20.48
12,1436803440249,-44.912,7.278,-20.48
13,1436803440267,-44.912,7.278,-20.48
14,1436803440284,-44.912,7.278,-20.48
15,1436803440305,-44.912,7.278,-20.48
16,1436803440323,-44.912,7.278,-20.48
17,1436803440346,-44.912,7.278,-20.48
18,1436803440364,-44.912,7.278,-20.48
19,1436803440386,-44.912,7.278,-20.48
20,1436803440408,-44.912,7.278,-20.48
21,1436803440426,-44.912,7.278,-20.48
22,1436803440448,-44.912,7.278,-20.48
23,1436803440465,-44.912,7.278,-20.48
24,1436803440484,-44.912,7.278,-20.48
25,1436803440506,-44.912,7.278,-20.48
26,1436803440526,-44.912,7.278,-20.48
27,1436803440548,-44.912,7.278,-20.48
28,1436803440566,-44.912,7.278,-20.48
29,1436803440586,-44.912,7.278,-20.48
30,1436803440605,-44.912,7.278,-20.48
31,1436803440626,-44.912,7.278,-20.48
32,1436803440644,-44.912,7.278,-20.48
33,1436803440664,-44.912,7.278,-20.48
34,1436803440684,-44.912,7.278,-20.162
35,1436803440710,-44.912,6.953,-20.162
36,1436803440726,-44.912,6.953,-20.162
37,1436803440746,-44.912,6.953,-20.162
38,1436803440764,-44.912,6.953,-20.162
39,1436803440784,-44.912,6.953,-20.162
40,1436803440805,-44.912,6.953,-19.844
41,1436803440824,-44.912,6.953,-19.844
42,1436803440846,-45.245,6.953,-19.844
43,1436803440868,-45.245,6.953,-19.844
44,1436803440938,-45.245,6.953,-19.844
45,1436803440939,-45.245,6.953,-19.52
46,1436803440940,-45.245,6.953,-19.52
47,1436803440948,-45.245,6.953,-19.52
48,1436803440966,-45.245,6.953,-19.52
49,1436803440986,-45.245,6.953,-19.52
50,1436803441004,-45.245,6.953,-19.206
51,1436803441030,-45.245,6.654,-19.206
52,1436803441058,-45.245,6.654,-19.206
53,1436803441065,-45.245,6.654,-19.206
54,1436803441085,-45.245,6.654,-19.206
55,1436803441106,-45.553,6.654,-18.873
56,1436803441125,-45.553,6.654,-18.873
57,1436803441148,-45.553,6.654,-18.873
58,1436803441166,-45.553,6.654,-18.873
59,1436803441187,-45.553,6.654,-18.873
60,1436803441208,-45.553,6.654,-18.873
61,1436803441228,-45.553,6.654,-18.873
62,1436803441248,-45.553,6.654,-18.515
63,1436803441266,-45.553,6.654,-18.515
64,1436803441288,-45.553,6.654,-18.515
65,1436803441308,-45.553,6.654,-18.515
66,1436803441325,-45.553,6.654,-18.515
67,1436803441348,-45.553,6.654,-18.515
68,1436803441367,-45.553,6.654,-18.515
69,1436803441388,-45.553,6.654,-18.515
70,1436803441409,-45.553,6.654,-18.515
71,1436803441427,-45.553,6.654,-18.515
72,1436803441448,-45.553,6.654,-18.197
73,1436803441468,-45.553,6.654,-18.197
74,1436803441489,-45.553,6.654,-18.197
75,1436803441512,-45.553,6.654,-18.197
76,1436803441529,-45.553,6.654,-18.197
77,1436803441548,-45.553,6.654,-18.197
78,1436803441565,-45.553,6.654,-18.197
79,1436803441587,-45.553,6.654,-18.197
80,1436803441659,-45.553,6.654,-18.197
81,1436803441660,-45.553,6.654,-18.197
82,1436803441661,-45.553,6.654,-18.197
83,1436803441672,-45.553,6.654,-18.197
84,1436803441686,-45.553,6.654,-18.197
85,1436803441706,-45.553,6.654,-18.197
86,1436803441725,-45.553,6.654,-18.197
87,1436803441751,-45.553,6.654,-18.197
88,1436803441765,-45.553,6.654,-18.197
89,1436803441785,-45.553,6.654,-18.197
90,1436803441812,-45.553,6.654,-18.197
91,1436803441826,-45.553,6.654,-18.539
92,1436803441851,-45.553,6.654,-18.539
93,1436803441868,-45.553,6.654,-18.539
94,1436803441888,-45.553,6.654,-18.539
95,1436803441908,-45.553,6.654,-18.539
96,1436803441929,-45.553,6.654,-18.539
97,1436803441948,-45.553,6.654,-18.841
98,1436803441968,-45.553,6.654,-18.841
99,1436803441988,-45.553,6.654,-18.841
100,1436803442008,-45.553,6.654,-18.841
101,1436803442031,-45.553,6.654,-18.841
102,1436803442046,-45.553,6.654,-18.841
103,1436803442068,-45.553,6.654,-18.841
104,1436803442087,-45.553,6.654,-18.841
105,1436803442108,-45.553,6.654,-18.841
106,1436803442129,-45.553,6.654,-18.841
107,1436803442148,-45.553,6.654,-18.841
108,1436803442168,-45.553,6.654,-18.841
109,1436803442187,-45.553,6.654,-18.841
110,1436803442208,-45.553,6.654,-18.841
111,1436803442230,-45.553,6.654,-18.841
112,1436803442249,-45.553,6.654,-18.841
113,1436803442269,-45.553,6.654,-18.841
114,1436803442285,-45.553,6.654,-19.148
115,1436803442308,-45.553,6.654,-19.148
116,1436803442380,-45.553,6.654,-19.148
117,1436803442381,-45.553,6.654,-19.148
118,1436803442382,-45.553,6.654,-19.148
119,1436803442390,-45.553,6.654,-19.148
120,1436803442409,-45.553,6.654,-19.148
121,1436803442442,-45.553,6.654,-19.148
122,1436803442448,-45.553,6.654,-19.148
123,1436803442466,-45.553,6.654,-19.148
124,1436803442490,-45.553,6.654,-19.148
125,1436803442523,-45.553,6.654,-19.148
126,1436803442546,-45.553,6.654,-19.148
127,1436803442547,-45.553,6.654,-19.148
128,1436803442568,-45.553,6.654,-19.148
129,1436803442607,-45.553,6.654,-19.148
130,1436803442608,-45.553,6.654,-19.148
131,1436803442626,-45.553,6.654,-19.148
132,1436803442646,-45.553,6.654,-19.148
133,1436803442666,-45.553,6.654,-19.148
134,1436803442686,-45.553,6.654,-19.148
135,1436803442706,-45.553,6.654,-19.148
136,1436803442726,-45.553,6.654,-19.148
137,1436803442746,-45.553,6.654,-19.148
138,1436803442766,-45.858,6.654,-18.838
139,1436803442788,-45.858,6.654,-18.838
140,1436803442806,-45.858,6.654,-18.838
141,1436803442827,-45.858,6.654,-18.838
142,1436803442846,-45.858,6.654,-18.838
143,1436803442868,-45.858,6.654,-18.838
144,1436803442889,-45.858,6.654,-18.838
145,1436803442909,-45.858,6.654,-18.838
146,1436803442929,-45.858,6.654,-18.838
147,1436803442949,-45.858,6.654,-18.838
148,1436803442970,-45.858,6.654,-18.838
149,1436803442989,-45.858,6.654,-18.838
150,1436803443011,-45.858,6.654,-18.838
151,1436803443030,-45.858,6.654,-18.838
152,1436803443049,-45.858,6.654,-18.838
153,1436803443070,-45.858,6.654,-18.838
154,1436803443153,-45.858,6.654,-18.838
155,1436803443154,-45.858,6.654,-18.838
156,1436803443155,-45.858,6.654,-18.838
157,1436803443156,-45.858,6.654,-18.838
158,1436803443180,-45.858,6.654,-18.838
159,1436803443186,-45.858,6.654,-18.838
160,1436803443209,-45.858,6.654,-18.838
161,1436803443226,-45.858,6.654,-18.838
162,1436803443246,-45.858,6.654,-18.838
163,1436803443266,-45.858,6.654,-18.838
164,1436803443288,-45.858,6.654,-18.838
165,1436803443311,-45.858,6.654,-18.838
166,1436803443326,-45.858,6.654,-18.838
167,1436803443347,-45.858,6.654,-18.838
168,1436803443370,-45.858,6.654,-18.838
169,1436803443390,-45.858,6.654,-18.838
170,1436803443408,-45.858,6.654,-18.838
171,1436803443429,-45.858,6.654,-18.838
172,1436803443450,-45.858,6.654,-19.158
173,1436803443470,-45.858,6.654,-19.158
174,1436803443489,-45.858,6.654,-19.158
175,1436803443509,-45.858,6.654,-19.158
176,1436803443530,-45.858,6.654,-19.158
177,1436803443550,-45.858,6.654,-19.158
178,1436803443570,-45.858,6.654,-19.158
179,1436803443592,-45.858,6.654,-19.158
180,1436803443613,-45.858,6.654,-19.158
181,1436803443632,-45.858,6.654,-19.158
182,1436803443650,-45.858,6.654,-19.158
183,1436803443667,-45.858,6.654,-19.158
184,1436803443688,-45.858,6.654,-19.158
185,1436803443706,-45.858,6.654,-19.158
186,1436803443732,-45.858,6.654,-19.158
187,1436803443755,-45.858,6.654,-19.158
188,1436803443767,-45.858,6.654,-19.158
189,1436803443787,-45.858,6.654,-19.158
190,1436803443819,-45.858,6.654,-19.158
191,1436803443880,-45.858,6.654,-19.158
192,1436803443884,-45.858,6.654,-19.158
193,1436803443885,-45.858,6.654,-19.158
194,1436803443896,-45.858,6.654,-19.158
195,1436803443907,-45.858,6.654,-19.158
196,1436803443929,-45.858,6.654,-19.158
197,1436803443948,-45.858,6.654,-19.158
198,1436803443968,-45.858,6.654,-19.158
199,1436803443989,-45.858,6.654,-19.158
200,1436803444008,-45.858,6.654,-19.158
201,1436803444029,-45.858,6.654,-18.853
202,1436803444119,-45.858,6.654,-18.853
203,1436803444120,-45.858,6.654,-18.853
204,1436803444121,-45.858,6.654,-18.853
205,1436803444122,-45.858,6.654,-18.853
206,1436803444209,-45.858,6.654,-18.853
207,1436803444210,-45.858,6.654,-18.853
208,1436803444211,-46.165,6.654,-18.853
209,1436803444212,-46.165,6.654,-18.853
210,1436803444213,-46.165,6.654,-18.853
211,1436803444238,-46.165,6.654,-18.547
212,1436803444247,-46.165,6.654,-18.547
213,1436803444267,-46.165,6.654,-18.547
214,1436803444288,-46.165,6.654,-18.547
215,1436803444308,-46.165,6.654,-18.547
216,1436803444333,-46.165,6.654,-18.547
217,1436803444348,-46.165,6.654,-18.547
218,1436803444368,-46.165,6.654,-18.547
219,1436803444387,-46.165,6.654,-18.547
220,1436803444407,-46.165,6.654,-18.547
221,1436803444428,-46.165,6.654,-18.547
222,1436803444448,-46.165,6.654,-18.547
223,1436803444468,-46.165,6.654,-18.547
224,1436803444488,-46.165,6.654,-18.547
225,1436803444508,-46.165,6.654,-18.547
226,1436803444528,-46.165,6.654,-18.882
227,1436803444546,-46.165,6.654,-18.882
228,1436803444566,-46.165,6.654,-18.882
229,1436803444586,-46.165,6.654,-18.882
230,1436803444606,-46.165,6.654,-18.882
231,1436803444627,-46.165,6.654,-19.209
232,1436803444646,-46.165,6.654,-19.209
233,1436803444666,-46.165,6.654,-19.209
234,1436803444686,-46.165,6.654,-19.209
235,1436803444706,-46.165,6.654,-19.209
236,1436803444726,-46.165,6.654,-19.572
237,1436803444746,-45.858,6.654,-19.572
238,1436803444766,-45.858,6.654,-19.572
239,1436803444786,-45.858,6.654,-19.572
240,1436803444806,-45.858,6.654,-19.572
241,1436803444826,-45.858,6.654,-19.572
242,1436803444846,-45.858,6.654,-19.88
243,1436803444866,-45.858,6.654,-19.88
244,1436803444889,-45.858,6.654,-19.88
245,1436803444912,-45.858,6.654,-19.88
246,1436803444927,-45.858,6.654,-19.88
247,1436803444951,-45.858,6.654,-19.88
248,1436803444968,-45.513,6.654,-19.88
249,1436803444988,-45.513,6.654,-19.88
250,1436803445008,-45.513,6.654,-19.88
251,1436803445032,-45.513,6.654,-19.88
252,1436803445050,-45.513,6.654,-19.88
253,1436803445069,-45.513,6.654,-19.88
254,1436803445089,-45.513,6.654,-19.88
255,1436803445108,-45.211,6.654,-19.88
256,1436803445128,-45.211,6.654,-19.88
257,1436803445148,-45.211,6.654,-19.88
258,1436803445169,-45.211,6.654,-19.88
259,1436803445191,-45.211,6.654,-19.88
260,1436803445222,-45.211,6.654,-19.88
261,1436803445228,-45.211,6.654,-19.88
262,1436803445250,-45.211,6.654,-19.88
263,1436803445269,-45.211,6.654,-19.88
264,1436803445291,-45.211,6.654,-19.88
265,1436803445308,-45.211,6.654,-19.88
266,1436803445329,-45.211,6.654,-19.88
267,1436803445350,-45.211,6.654,-19.88
268,1436803445368,-45.211,6.654,-19.88
269,1436803445392,-45.211,6.654,-19.88
270,1436803445412,-45.211,6.654,-19.88
271,1436803445431,-45.211,6.654,-19.88
272,1436803445452,-45.211,6.654,-19.88
273,1436803445472,-45.211,6.654,-19.88
274,1436803445491,-45.211,6.973,-19.88
275,1436803445512,-45.211,6.973,-19.88
276,1436803445532,-45.211,6.973,-19.88
277,1436803445552,-45.211,6.973,-19.88
278,1436803445571,-45.211,6.973,-19.88
279,1436803445589,-45.211,6.973,-19.88
280,1436803445612,-45.211,6.973,-19.88
281,1436803445632,-45.211,6.973,-20.185
282,1436803445651,-45.211,6.973,-20.185
283,1436803445671,-45.211,6.973,-20.185
284,1436803445692,-45.211,6.973,-20.185
285,1436803445712,-45.211,6.973,-20.185
286,1436803445732,-45.211,6.973,-20.185
287,1436803445752,-45.211,6.973,-20.185
288,1436803445770,-45.211,6.973,-20.185
289,1436803445791,-45.211,6.973,-20.185
290,1436803445811,-45.211,6.973,-20.185
291,1436803445830,-45.211,6.973,-20.185
292,1436803445849,-45.211,6.973,-20.185
293,1436803445918,-45.211,6.973,-20.185
294,1436803445919,-45.211,6.973,-20.185
295,1436803445920,-45.211,6.973,-20.185
296,1436803445938,-45.211,6.973,-20.185
297,1436803445949,-45.211,6.973,-20.185
298,1436803445975,-45.211,6.973,-20.185
299,1436803445990,-45.211,6.973,-20.185
300,1436803446011,-45.211,6.973,-20.185
301,1436803446031,-45.211,6.973,-19.876
302,1436803446049,-45.211,6.973,-19.876
303,1436803446072,-45.211,6.973,-19.876
304,1436803446090,-45.211,6.973,-19.876
305,1436803446110,-45.211,6.973,-19.876
306,1436803446129,-45.211,6.973,-19.876
307,1436803446152,-45.516,6.973,-19.876
308,1436803446173,-45.516,6.973,-19.876
309,1436803446193,-45.516,6.973,-19.5
310,1436803446212,-45.516,6.973,-19.5
311,1436803446232,-45.516,6.973,-19.5
312,1436803446252,-45.516,6.973,-19.5
313,1436803446272,-45.516,6.973,-19.5
314,1436803446293,-45.516,6.973,-19.5
315,1436803446314,-45.516,6.973,-19.168
316,1436803446330,-45.516,6.973,-19.168
317,1436803446352,-45.516,6.973,-19.168
318,1436803446372,-45.516,6.973,-19.168
319,1436803446393,-45.516,6.973,-19.168
320,1436803446412,-45.516,6.973,-19.168
321,1436803446432,-45.516,6.973,-18.832
322,1436803446453,-45.516,6.973,-18.832
323,1436803446472,-45.516,6.973,-18.832
324,1436803446492,-45.822,6.973,-18.832
325,1436803446513,-45.822,6.973,-18.832
326,1436803446532,-45.822,6.973,-18.832
327,1436803446553,-45.822,6.973,-18.832
328,1436803446572,-45.822,6.973,-18.832
329,1436803446592,-45.822,6.973,-18.832
330,1436803446664,-45.822,6.973,-18.832
331,1436803446665,-45.822,6.973,-18.832
332,1436803446666,-45.822,6.973,-18.832
333,1436803446673,-45.822,6.973,-18.832
334,1436803446694,-45.822,6.973,-18.832
335,1436803446711,-45.822,6.973,-18.832
336,1436803446731,-45.822,7.295,-18.832
337,1436803446750,-45.822,7.295,-18.832
338,1436803446771,-45.822,7.295,-18.832
339,1436803446789,-45.822,7.295,-18.832
340,1436803446815,-45.822,7.295,-18.832
341,1436803446834,-45.822,7.295,-18.832
342,1436803446851,-45.822,7.295,-19.198
343,1436803446873,-45.822,7.295,-19.198
344,1436803446893,-45.822,7.295,-19.198
345,1436803446913,-45.822,7.295,-19.198
346,1436803446933,-45.515,7.295,-19.198
347,1436803446953,-45.515,7.295,-19.569
348,1436803446973,-45.515,7.295,-19.569
349,1436803446993,-45.515,7.295,-19.569
350,1436803447013,-45.515,7.295,-19.569
351,1436803447033,-45.515,7.295,-19.569
352,1436803447054,-45.515,7.295,-19.569
353,1436803447071,-45.515,7.295,-19.569
354,1436803447091,-45.515,7.295,-19.918
355,1436803447110,-45.515,7.295,-19.918
356,1436803447131,-45.211,7.295,-19.918
357,1436803447151,-45.211,7.295,-19.918
358,1436803447175,-45.211,7.295,-19.918
359,1436803447196,-45.211,7.295,-19.918
360,1436803447212,-45.211,7.295,-19.918
361,1436803447233,-45.211,7.295,-20.262
362,1436803447251,-45.211,7.295,-20.262
363,1436803447272,-45.211,7.295,-20.262
364,1436803447291,-45.211,7.295,-20.262
365,1436803447311,-45.211,7.295,-20.262
366,1436803447330,-45.211,7.295,-20.262
367,1436803447383,-45.211,7.295,-20.262
368,1436803447384,-45.211,7.295,-20.262
369,1436803447401,-45.211,7.295,-20.262
370,1436803447410,-45.211,7.295,-20.262
371,1436803447431,-45.211,7.295,-20.262
372,1436803447451,-45.211,7.295,-20.262
373,1436803447470,-45.211,7.295,-20.262
374,1436803447494,-45.211,7.295,-20.262
375,1436803447510,-45.211,7.295,-20.262
376,1436803447531,-45.211,7.295,-20.262
377,1436803447551,-45.211,7.295,-20.262
378,1436803447572,-45.211,7.295,-20.262
379,1436803447591,-45.211,7.295,-20.262
380,1436803447612,-45.211,7.295,-20.262
381,1436803447633,-45.211,7.295,-20.262
382,1436803447654,-45.211,7.295,-20.262
383,1436803447674,-45.211,7.295,-20.262
384,1436803447694,-45.211,7.295,-20.262
385,1436803447714,-45.211,7.295,-20.262
386,1436803447733,-45.211,6.988,-20.262
387,1436803447754,-45.211,6.988,-20.262
388,1436803447774,-45.211,6.988,-20.262
389,1436803447794,-45.211,6.988,-20.262
390,1436803447813,-45.211,6.988,-20.262
391,1436803447833,-45.211,6.988,-20.262
392,1436803447853,-45.211,6.988,-20.262
393,1436803447873,-45.211,6.988,-20.262
394,1436803447891,-45.211,6.988,-20.262
395,1436803447916,-45.211,6.988,-20.262
396,1436803447934,-45.211,6.988,-19.944
397,1436803447955,-45.211,6.988,-19.944
398,1436803447974,-45.211,6.988,-19.944
399,1436803447991,-45.211,6.988,-19.944
400,1436803448012,-45.211,6.988,-19.944
401,1436803448033,-45.211,6.988,-19.944
402,1436803448052,-45.211,6.988,-19.944
403,1436803448116,-45.211,6.988,-19.633
404,1436803448117,-45.211,6.988,-19.633
405,1436803448119,-45.211,6.988,-19.633
406,1436803448141,-45.211,6.988,-19.633
407,1436803448151,-45.211,6.988,-19.633
408,1436803448171,-45.211,6.988,-19.633
409,1436803448191,-45.211,6.988,-19.633
410,1436803448211,-45.521,6.988,-19.633
411,1436803448234,-45.521,6.988,-19.633
412,1436803448251,-45.521,6.988,-19.633
413,1436803448272,-45.521,6.988,-19.633
414,1436803448293,-45.521,6.988,-19.633
415,1436803448312,-45.521,6.988,-19.633
416,1436803448333,-45.521,6.988,-19.633
417,1436803448353,-45.521,6.988,-19.633
418,1436803448374,-45.521,6.988,-19.633
419,1436803448391,-45.521,6.988,-19.633
420,1436803448411,-45.521,6.988,-19.633
421,1436803448432,-45.521,6.988,-19.633
422,1436803448473,-45.521,6.988,-19.633
423,1436803448474,-45.521,6.988,-19.633
424,1436803448512,-45.521,6.988,-19.633
425,1436803448513,-45.521,6.988,-19.633
426,1436803448531,-45.521,6.988,-19.633
427,1436803448551,-45.521,6.988,-19.633
428,1436803448571,-45.521,6.988,-19.633
429,1436803448591,-45.521,6.988,-19.633
430,1436803448611,-45.521,6.988,-19.633
431,1436803448631,-45.521,7.312,-19.633
432,1436803448651,-45.521,7.312,-19.633
433,1436803448671,-45.521,7.312,-19.633
434,1436803448691,-45.521,7.312,-19.633
435,1436803448712,-45.521,7.312,-19.633
436,1436803448731,-45.521,7.312,-19.633
437,1436803448752,-45.521,7.312,-19.633
438,1436803448779,-45.521,7.312,-19.633
439,1436803448791,-45.521,7.312,-19.633
440,1436803448871,-45.521,7.312,-19.633
441,1436803448872,-45.521,7.312,-19.633
442,1436803448873,-45.521,7.312,-19.633
443,1436803448874,-45.521,7.312,-19.633
444,1436803448894,-45.521,7.312,-19.633
445,1436803448912,-45.521,7.312,-19.633
446,1436803448932,-45.521,7.312,-19.633
447,1436803448953,-45.521,7.312,-19.633
448,1436803448980,-45.521,7.312,-19.633
449,1436803448992,-45.521,7.312,-19.633
450,1436803449012,-45.521,7.312,-19.633
451,1436803449032,-45.521,7.312,-19.633
452,1436803449055,-45.521,7.312,-19.633
453,1436803449077,-45.521,7.312,-19.633
454,1436803449091,-45.521,7.312,-19.633
455,1436803449110,-45.521,7.312,-19.633
456,1436803449132,-45.521,7.312,-19.633
457,1436803449152,-45.521,7.312,-19.633
458,1436803449172,-45.521,7.312,-19.633
459,1436803449192,-45.521,7.312,-19.633
460,1436803449212,-45.521,7.312,-19.633
461,1436803449231,-45.521,7.312,-19.633
462,1436803449251,-45.521,7.312,-19.633
463,1436803449272,-45.521,7.312,-19.633
464,1436803449293,-45.521,7.312,-19.633
465,1436803449311,-45.521,7.312,-19.633
466,1436803449332,-45.521,7.312,-19.633
467,1436803449351,-45.521,7.312,-19.633
468,1436803449371,-45.521,7.312,-19.633
469,1436803449391,-45.521,7.312,-19.633
470,1436803449413,-45.521,7.312,-19.633
471,1436803449431,-45.521,7.312,-19.633
472,1436803449454,-45.521,7.312,-19.633
473,1436803449471,-45.521,7.312,-19.633
474,1436803449491,-45.521,7.312,-19.633
475,1436803449513,-45.521,7.312,-19.633
476,1436803449531,-45.521,7.312,-19.633
477,1436803449553,-45.521,7.312,-19.633
478,1436803449589,-45.521,7.312,-19.633
479,1436803449612,-45.521,7.312,-19.633
480,1436803449613,-45.521,7.312,-19.633
481,1436803449635,-45.521,7.312,-19.633
482,1436803449653,-45.521,7.312,-19.633
483,1436803449673,-45.521,7.312,-19.633
484,1436803449694,-45.521,7.312,-19.633
485,1436803449712,-45.521,7.312,-19.633
486,1436803449733,-45.521,7.312,-19.633
487,1436803449754,-45.521,7.312,-19.633
488,1436803449773,-45.521,7.312,-19.633
489,1436803449794,-45.521,7.312,-19.633
490,1436803449812,-45.521,7.312,-19.633
491,1436803449833,-45.521,7.312,-19.633
492,1436803449853,-45.521,7.312,-19.633
493,1436803449874,-45.521,7.312,-19.633
494,1436803449896,-45.521,7.312,-19.633
495,1436803449913,-45.216,7.312,-19.633
496,1436803449933,-45.216,7.312,-19.633
497,1436803449956,-45.216,7.312,-19.633
498,1436803449972,-45.216,7.312,-19.633
499,1436803449994,-45.216,7.312,-19.633
500,1436803450014,-45.216,7.312,-20.01
501,1436803450036,-45.216,7.003,-20.01
502,1436803450054,-45.216,7.003,-20.01
503,1436803450075,-45.216,7.003,-20.01
504,1436803450093,-45.216,7.003,-20.359
