id,attr_time,attr_x,attr_y,attr_z
1,1436803440013,0.796,-42.379,-18.298
2,1436803440033,0.796,-42.07,-18.298
3,1436803440053,0.796,-42.07,-18.298
4,1436803440073,0.796,-42.07,-18.298
5,1436803440093,0.796,-42.07,-18.298
6,1436803440113,0.796,-42.07,-18.298
7,1436803440133,0.796,-42.07,-18.611
8,1436803440153,0.796,-42.07,-18.611
9,1436803440173,0.796,-42.07,-18.611
10,1436803440193,0.796,-42.07,-18.611
11,1436803440213,0.796,-42.07,-18.611
12,1436803440233,0.796,-42.07,-18.611
13,1436803440253,0.796,-42.07,-18.611
14,1436803440273,0.796,-42.07,-18.611
15,1436803440293,0.796,-42.07,-18.611
16,1436803440313,0.796,-42.07,-18.611
17,1436803440333,0.796,-42.07,-18.611
18,1436803440353,0.796,-42.07,-18.611
19,1436803440378,0.796,-42.07,-18.611
20,1436803440396,0.796,-42.07,-18.611
21,1436803440415,0.796,-42.07,-18.611
22,1436803440435,0.796,-42.07,-18.31
23,1436803440458,0.796,-42.07,-18.31
24,1436803440474,0.796,-42.07,-18.31
25,1436803440495,0.796,-42.07,-18.31
26,1436803440516,0.796,-42.07,-18.31
27,1436803440540,0.796,-42.07,-18.31
28,1436803440574,0.796,-42.07,-18.31
29,1436803440577,0.796,-42.07,-18.31
30,1436803440595,0.796,-42.07,-18.31
31,1436803440615,0.796,-42.07,-18.31
32,1436803440641,0.796,-42.07,-18.31
33,1436803440656,0.796,-42.07,-18.31
34,1436803440677,0.796,-42.07,-18.31
35,1436803440696,0.796,-42.07,-18.31
36,1436803440716,0.796,-42.07,-18.31
37,1436803440735,0.796,-42.07,-18.31
38,1436803440758,0.796,-42.07,-18.31
39,1436803440779,0.796,-42.07,-18.31
40,1436803440796,0.796,-42.07,-18.31
41,1436803440818,0.796,-42.07,-18.31
42,1436803440838,0.796,-42.07,-18.31
43,1436803440858,0.796,-42.07,-18.31
44,1436803440875,0.796,-42.07,-18.31
45,1436803440896,0.796,-42.07,-18.31
46,1436803440915,0.796,-42.07,-17.968
47,1436803440938,0.796,-42.07,-17.968
48,1436803440954,0.796,-42.07,-17.968
49,1436803440977,0.796,-42.07,-17.968
50,1436803440998,0.796,-42.07,-17.968
51,1436803441018,0.796,-42.07,-17.968
52,1436803441038,0.796,-42.07,-17.968
53,1436803441059,0.796,-42.07,-17.968
54,1436803441078,0.796,-42.376,-17.968
55,1436803441098,0.796,-42.376,-17.968
56,1436803441117,0.796,-42.376,-17.968
57,1436803441137,0.796,-42.376,-17.968
58,1436803441158,0.796,-42.376,-17.968
59,1436803441180,0.796,-42.376,-17.968
60,1436803441199,0.796,-42.376,-17.654
61,1436803441219,0.796,-42.376,-17.654
62,1436803441241,0.796,-42.376,-17.654
63,1436803441276,1.115,-42.376,-17.654
64,1436803441277,1.115,-42.376,-17.654
65,1436803441296,1.115,-42.376,-17.654
66,1436803441319,1.115,-42.376,-17.654
67,1436803441339,1.115,-42.376,-17.654
68,1436803441356,1.115,-42.376,-17.654
69,1436803441378,1.115,-42.376,-17.654
70,1436803441398,1.115,-42.376,-17.654
71,1436803441419,1.115,-42.376,-17.654
72,1436803441436,1.115,-42.376,-17.654
73,1436803441458,1.115,-42.376,-17.654
74,1436803441484,1.115,-42.376,-17.654
75,1436803441496,1.115,-42.376,-17.654
76,1436803441517,1.115,-42.376,-17.654
77,1436803441539,1.115,-42.376,-17.654
78,1436803441559,1.115,-42.376,-17.654
79,1436803441578,1.44,-42.376,-17.654
80,1436803441599,1.44,-42.376,-17.654
81,1436803441619,1.44,-42.376,-17.654
82,1436803441638,1.44,-42.376,-17.654
83,1436803441657,1.44,-42.376,-17.654
84,1436803441675,1.44,-42.376,-17.654
85,1436803441698,1.44,-42.376,-17.654
86,1436803441716,1.44,-42.376,-17.654
87,1436803441737,1.44,-42.376,-17.654
88,1436803441757,1.44,-42.376,-17.654
89,1436803441776,1.75,-42.376,-17.654
90,1436803441796,1.75,-42.376,-17.654
91,1436803441819,1.75,-42.376,-17.654
92,1436803441842,1.75,-42.376,-17.654
93,1436803441862,1.75,-42.376,-17.654
94,1436803441879,1.75,-42.376,-17.654
95,1436803441898,1.75,-42.376,-17.654
96,1436803441919,1.75,-42.376,-17.654
97,1436803441938,1.75,-42.376,-17.654
98,1436803441956,1.75,-42.376,-17.654
99,1436803441978,1.75,-42.376,-17.654
100,1436803442137,1.75,-42.376,-17.654
101,1436803442138,1.75,-42.376,-17.654
102,1436803442139,1.75,-42.376,-17.654
103,1436803442140,1.75,-42.376,-17.654
104,1436803442141,1.75,-42.376,-17.654
105,1436803442142,1.75,-42.376,-17.654
106,1436803442143,1.75,-42.376,-17.654
107,1436803442144,1.75,-42.376,-17.315
108,1436803442161,1.75,-42.376,-17.315
109,1436803442188,1.75,-42.376,-17.315
110,1436803442196,1.75,-42.376,-17.315
111,1436803442217,1.75,-42.376,-17.315
112,1436803442240,1.75,-42.376,-17.315
113,1436803442259,1.75,-42.376,-17.315
114,1436803442278,1.75,-42.376,-17.315
115,1436803442296,1.75,-42.376,-17.315
116,1436803442317,1.75,-42.376,-17.315
117,1436803442336,1.75,-42.376,-17.315
118,1436803442360,1.75,-42.376,-17.315
119,1436803442380,1.75,-42.376,-17.315
120,1436803442399,1.75,-42.376,-17.315
121,1436803442419,1.75,-42.376,-17.315
122,1436803442438,1.75,-42.376,-17.315
123,1436803442458,1.75,-42.376,-16.987
124,1436803442476,1.75,-42.376,-16.987
125,1436803442498,1.75,-42.376,-16.987
126,1436803442518,1.75,-42.376,-16.987
127,1436803442538,1.75,-42.376,-16.987
128,1436803442558,1.75,-42.376,-16.987
129,1436803442579,1.75,-42.376,-16.987
130,1436803442598,1.75,-42.376,-16.987
131,1436803442621,1.75,-42.376,-16.987
132,1436803442641,1.75,-42.376,-16.987
133,1436803442662,1.75,-42.376,-16.987
134,1436803442681,1.437,-42.376,-16.987
135,1436803442699,1.437,-42.376,-16.987
136,1436803442719,1.437,-42.376,-16.987
137,1436803442739,1.437,-42.376,-16.987
138,1436803442757,1.437,-42.376,-16.987
139,1436803442830,1.437,-42.376,-16.987
140,1436803442831,1.437,-42.376,-16.987
141,1436803442845,1.437,-42.376,-16.987
142,1436803442846,1.437,-42.686,-16.987
143,1436803442857,1.437,-42.686,-16.679
144,1436803442879,1.437,-42.686,-16.679
145,1436803442899,1.437,-42.686,-16.679
146,1436803442918,1.437,-42.686,-16.679
147,1436803442941,1.437,-42.686,-16.679
148,1436803442959,1.437,-42.686,-16.679
149,1436803442978,1.437,-42.686,-16.679
150,1436803442999,1.437,-42.686,-16.679
151,1436803443018,1.437,-42.686,-16.679
152,1436803443037,1.437,-42.686,-16.679
153,1436803443059,1.437,-42.686,-16.679
154,1436803443079,1.437,-42.686,-16.679
155,1436803443101,1.437,-42.686,-16.361
156,1436803443119,1.437,-42.686,-16.361
157,1436803443137,1.437,-42.686,-16.361
158,1436803443159,1.437,-42.686,-16.361
159,1436803443178,1.437,-42.686,-16.361
160,1436803443198,1.437,-42.686,-16.361
161,1436803443217,1.437,-42.686,-16.361
162,1436803443242,1.437,-42.686,-16.361
163,1436803443259,1.437,-42.686,-16.361
164,1436803443279,1.437,-42.994,-16.058
165,1436803443301,1.437,-42.994,-16.058
166,1436803443319,1.437,-42.994,-16.058
167,1436803443340,1.437,-42.994,-16.058
168,1436803443363,1.437,-42.994,-16.058
169,1436803443383,1.437,-42.994,-16.058
170,1436803443402,1.437,-42.994,-15.747
171,1436803443431,1.437,-42.994,-15.747
172,1436803443447,1.437,-42.994,-15.747
173,1436803443460,1.437,-42.994,-15.747
174,1436803443478,1.437,-42.994,-15.747
175,1436803443504,1.437,-42.994,-15.747
176,1436803443580,1.437,-42.994,-15.747
177,1436803443581,1.437,-42.994,-15.747
178,1436803443582,1.437,-42.994,-15.747
179,1436803443583,1.437,-42.994,-15.747
180,1436803443599,1.437,-42.994,-15.747
181,1436803443623,1.437,-42.994,-15.747
182,1436803443639,1.437,-42.994,-15.747
183,1436803443659,1.437,-42.994,-15.747
184,1436803443679,1.437,-42.994,-15.747
185,1436803443698,1.437,-42.994,-15.747
186,1436803443718,1.437,-42.994,-15.747
187,1436803443738,1.437,-42.994,-15.747
188,1436803443759,1.437,-42.994,-15.747
189,1436803443779,1.437,-42.994,-15.747
190,1436803443802,1.437,-42.994,-15.747
191,1436803443820,1.437,-42.994,-15.747
192,1436803443842,1.437,-42.994,-15.747
193,1436803443860,1.437,-42.994,-15.747
194,1436803443881,1.437,-42.994,-15.747
195,1436803443899,1.437,-42.994,-15.747
196,1436803443918,1.437,-42.994,-15.747
197,1436803443943,1.437,-42.994,-15.747
198,1436803443959,1.437,-42.994,-15.747
199,1436803443978,1.437,-42.994,-15.747
200,1436803444000,1.437,-42.994,-15.747
201,1436803444020,1.437,-42.994,-15.747
202,1436803444041,1.437,-42.994,-15.747
203,1436803444062,1.437,-42.994,-15.747
204,1436803444081,1.437,-42.994,-15.747
205,1436803444100,1.437,-42.994,-15.747
206,1436803444119,1.437,-42.994,-15.414
207,1436803444140,1.437,-42.994,-15.414
208,1436803444162,1.437,-42.994,-15.414
209,1436803444185,1.437,-42.994,-15.414
210,1436803444209,1.437,-42.994,-15.414
211,1436803444224,1.437,-42.994,-15.414
212,1436803444325,1.437,-42.994,-15.414
213,1436803444326,1.437,-42.994,-15.414
214,1436803444327,1.437,-42.994,-15.414
215,1436803444328,1.437,-42.994,-15.414
216,1436803444329,1.437,-42.994,-15.414
217,1436803444341,1.437,-42.994,-15.724
218,1436803444363,1.437,-42.994,-15.724
219,1436803444378,1.437,-42.994,-15.724
220,1436803444398,1.437,-42.994,-15.724
221,1436803444431,1.437,-42.994,-15.724
222,1436803444439,1.437,-42.994,-15.724
223,1436803444467,1.437,-42.994,-15.724
224,1436803444479,1.437,-42.994,-15.724
225,1436803444503,1.437,-42.994,-15.724
226,1436803444521,1.437,-42.994,-15.724
227,1436803444540,1.437,-42.994,-15.724
228,1436803444560,1.437,-42.994,-16.027
229,1436803444579,1.437,-42.994,-16.027
230,1436803444598,1.437,-42.994,-16.027
231,1436803444618,1.437,-42.994,-16.027
232,1436803444639,1.437,-42.994,-16.027
233,1436803444661,1.437,-42.994,-16.027
234,1436803444680,1.437,-42.994,-16.027
235,1436803444705,1.437,-42.994,-16.027
236,1436803444720,1.747,-42.994,-16.027
237,1436803444743,1.747,-42.994,-16.027
238,1436803444764,1.747,-42.994,-16.027
239,1436803444780,1.747,-42.994,-16.027
240,1436803444799,1.747,-42.994,-16.027
241,1436803444818,1.747,-42.994,-16.027
242,1436803444839,1.747,-42.994,-16.027
243,1436803444858,1.747,-42.994,-16.027
244,1436803444883,1.747,-42.994,-16.027
245,1436803444899,1.747,-42.994,-16.027
246,1436803444924,1.747,-42.994,-16.027
247,1436803444939,1.747,-42.994,-16.027
248,1436803444963,1.747,-42.994,-16.027
249,1436803445032,1.747,-42.994,-16.027
250,1436803445033,1.747,-42.994,-16.027
251,1436803445034,1.747,-42.994,-16.027
252,1436803445041,1.747,-42.994,-16.027
253,1436803445061,1.747,-42.994,-16.027
254,1436803445085,1.747,-42.994,-16.027
255,1436803445099,1.747,-42.994,-16.027
256,1436803445120,1.747,-42.994,-16.027
257,1436803445139,1.747,-42.994,-16.027
258,1436803445161,1.747,-42.994,-16.027
259,1436803445180,1.747,-42.994,-16.027
260,1436803445223,1.747,-42.994,-16.027
261,1436803445224,1.747,-42.994,-16.027
262,1436803445240,1.747,-42.994,-16.027
263,1436803445259,1.747,-42.994,-16.027
264,1436803445281,1.747,-42.994,-16.027
265,1436803445307,1.747,-42.994,-16.027
266,1436803445319,1.747,-42.994,-16.027
267,1436803445341,1.747,-42.994,-16.027
268,1436803445443,1.747,-42.994,-16.027
269,1436803445444,1.747,-42.994,-16.027
270,1436803445445,1.747,-42.994,-16.027
271,1436803445446,1.747,-42.994,-16.027
272,1436803445447,1.747,-42.994,-16.027
273,1436803445459,1.747,-42.994,-16.027
274,1436803445479,1.747,-42.994,-16.027
275,1436803445501,1.747,-42.994,-16.027
276,1436803445520,1.747,-42.994,-16.027
277,1436803445541,1.747,-42.994,-16.027
278,1436803445563,1.747,-42.994,-16.027
279,1436803445582,1.747,-42.994,-16.027
280,1436803445603,1.747,-42.994,-16.027
281,1436803445624,1.747,-42.994,-16.027
282,1436803445641,1.747,-42.994,-16.027
283,1436803445661,1.747,-42.994,-16.027
284,1436803445680,1.747,-42.994,-16.027
285,1436803445700,1.747,-42.994,-16.027
286,1436803445726,1.747,-42.994,-16.027
287,1436803445738,1.747,-42.994,-16.027
288,1436803445761,1.747,-42.994,-16.027
289,1436803445779,1.747,-42.994,-16.027
290,1436803445800,1.747,-42.994,-16.027
291,1436803445820,1.747,-42.994,-16.027
292,1436803445840,1.747,-42.994,-16.027
293,1436803445859,1.747,-42.994,-16.027
294,1436803445881,1.747,-42.994,-16.027
295,1436803445900,1.747,-42.994,-16.027
296,1436803445919,1.747,-42.994,-16.027
297,1436803445940,1.747,-42.994,-16.027
298,1436803445961,1.747,-42.994,-16.027
299,1436803445981,1.747,-42.994,-16.027
300,1436803446001,1.747,-42.994,-16.027
301,1436803446020,1.747,-42.994,-16.027
302,1436803446039,1.747,-42.994,-16.027
303,1436803446060,1.747,-42.994,-16.027
304,1436803446080,1.747,-42.994,-16.027
305,1436803446101,1.747,-42.994,-16.027
306,1436803446120,1.747,-42.994,-16.027
307,1436803446145,1.747,-42.994,-16.027
308,1436803446161,1.747,-42.994,-16.027
309,1436803446180,1.747,-42.994,-16.027
310,1436803446200,1.747,-42.994,-16.027
311,1436803446221,1.747,-42.994,-16.027
312,1436803446241,1.747,-42.994,-16.027
313,1436803446260,1.747,-42.994,-16.027
314,1436803446280,1.747,-42.994,-16.027
315,1436803446301,1.747,-42.994,-16.027
316,1436803446321,1.747,-42.994,-16.027
317,1436803446346,1.747,-42.994,-16.027
318,1436803446395,1.747,-42.994,-16.027
319,1436803446396,1.747,-42.994,-16.027
320,1436803446416,1.747,-42.994,-16.027
321,1436803446420,1.747,-42.994,-16.027
322,1436803446442,1.747,-42.994,-16.027
323,1436803446464,1.747,-42.994,-16.027
324,1436803446480,1.747,-42.994,-16.027
325,1436803446500,1.747,-42.994,-16.027
326,1436803446520,1.747,-42.994,-16.027
327,1436803446542,1.747,-42.994,-16.027
328,1436803446562,1.747,-42.994,-16.027
329,1436803446582,1.747,-42.994,-16.027
330,1436803446603,1.747,-42.994,-16.027
331,1436803446621,1.747,-42.994,-16.027
332,1436803446640,1.747,-42.994,-15.708
333,1436803446660,1.747,-42.994,-15.708
334,1436803446681,1.747,-42.994,-15.708
335,1436803446701,1.747,-42.994,-15.708
336,1436803446721,1.747,-42.994,-15.708
337,1436803446741,1.747,-42.994,-15.708
338,1436803446761,1.747,-42.994,-15.708
339,1436803446781,1.747,-42.994,-15.708
340,1436803446803,1.747,-42.994,-15.708
341,1436803446822,1.747,-42.994,-15.708
342,1436803446841,1.747,-42.994,-15.708
343,1436803446861,1.747,-42.994,-15.708
344,1436803446884,1.747,-42.994,-15.708
345,1436803446901,1.747,-42.994,-15.708
346,1436803446924,1.747,-42.994,-15.708
347,1436803446944,1.747,-42.994,-15.708
348,1436803446969,1.747,-42.994,-15.708
349,1436803446981,1.747,-42.994,-15.708
350,1436803447001,1.747,-42.994,-15.708
351,1436803447022,1.747,-42.994,-15.708
352,1436803447042,1.747,-42.994,-15.708
353,1436803447061,1.747,-42.994,-15.708
354,1436803447127,1.747,-42.994,-15.708
355,1436803447128,1.747,-42.994,-15.708
356,1436803447129,1.747,-42.994,-15.708
357,1436803447152,1.747,-42.994,-15.708
358,1436803447161,1.747,-42.994,-15.708
359,1436803447181,1.747,-42.994,-15.708
360,1436803447201,1.747,-42.994,-15.708
361,1436803447221,1.747,-42.994,-15.708
362,1436803447247,1.747,-42.994,-15.708
363,1436803447261,1.747,-42.994,-15.708
364,1436803447284,1.747,-42.994,-15.708
365,1436803447304,1.747,-42.994,-15.708
366,1436803447322,1.747,-42.994,-15.708
367,1436803447341,1.747,-42.994,-15.708
368,1436803447361,1.747,-42.994,-15.708
369,1436803447383,1.747,-42.994,-15.708
370,1436803447403,1.747,-42.994,-15.708
371,1436803447421,1.747,-42.994,-15.708
372,1436803447442,1.747,-42.994,-15.708
373,1436803447462,1.747,-42.994,-15.708
374,1436803447482,1.747,-42.994,-15.708
375,1436803447503,1.747,-42.994,-15.708
376,1436803447522,1.747,-42.994,-15.708
377,1436803447542,1.747,-42.994,-15.708
378,1436803447561,1.747,-42.994,-15.708
379,1436803447581,1.747,-42.994,-15.708
380,1436803447603,1.747,-42.994,-15.708
381,1436803447623,1.747,-42.994,-15.708
382,1436803447643,1.747,-42.994,-16.043
383,1436803447663,1.747,-42.994,-16.043
384,1436803447711,1.747,-42.994,-16.043
385,1436803447712,2.066,-42.994,-16.043
386,1436803447723,2.066,-42.994,-16.043
387,1436803447746,2.066,-42.994,-16.043
388,1436803447764,2.066,-42.994,-16.043
389,1436803447783,2.066,-42.994,-16.043
390,1436803447897,2.066,-42.994,-16.043
391,1436803447898,2.066,-42.994,-16.043
392,1436803447899,2.066,-42.994,-16.043
393,1436803447901,2.066,-42.994,-16.043
394,1436803447902,2.066,-42.994,-16.043
395,1436803447903,2.066,-42.994,-16.043
396,1436803447924,2.066,-42.994,-16.043
397,1436803447954,2.066,-42.694,-16.043
398,1436803447961,2.066,-42.694,-16.043
399,1436803447982,2.066,-42.694,-16.043
400,1436803448002,2.066,-42.694,-16.043
401,1436803448022,2.066,-42.694,-16.043
402,1436803448043,2.066,-42.694,-16.043
403,1436803448068,2.066,-42.694,-16.043
404,1436803448084,2.066,-42.694,-16.043
405,1436803448102,2.066,-42.694,-16.043
406,1436803448122,1.724,-42.694,-16.043
407,1436803448143,1.724,-42.694,-16.043
408,1436803448162,1.724,-42.694,-16.043
409,1436803448184,1.724,-42.694,-16.043
410,1436803448205,1.724,-42.694,-16.043
411,1436803448224,1.724,-42.694,-16.043
412,1436803448243,1.724,-42.694,-16.043
413,1436803448263,1.724,-42.694,-16.043
414,1436803448282,1.724,-42.694,-16.043
415,1436803448306,1.724,-42.694,-16.043
416,1436803448325,1.724,-42.694,-16.043
417,1436803448345,1.724,-42.694,-16.043
418,1436803448364,1.724,-42.694,-16.043
419,1436803448386,1.724,-42.997,-16.043
420,1436803448403,1.724,-42.997,-16.043
421,1436803448422,1.724,-42.997,-16.043
422,1436803448443,1.724,-42.997,-16.043
423,1436803448464,1.724,-42.997,-16.043
424,1436803448485,1.724,-42.997,-16.043
425,1436803448505,1.724,-42.997,-16.043
426,1436803448523,1.724,-42.997,-16.043
427,1436803448545,1.724,-42.997,-16.043
428,1436803448571,1.724,-42.997,-16.043
429,1436803448590,1.724,-42.997,-16.043
430,1436803448603,1.724,-42.997,-16.043
431,1436803448621,1.724,-42.997,-16.043
432,1436803448644,1.724,-42.997,-16.043
433,1436803448662,1.724,-42.997,-16.043
434,1436803448684,1.724,-42.997,-16.043
435,1436803448705,1.724,-42.997,-16.043
436,1436803448724,1.724,-42.997,-16.043
437,1436803448743,1.724,-42.997,-16.043
438,1436803448763,1.724,-42.997,-16.043
439,1436803448782,1.724,-42.997,-16.043
440,1436803448803,1.724,-42.997,-16.043
441,1436803448824,1.724,-42.997,-16.043
442,1436803448845,1.724,-42.997,-15.724
443,1436803448866,1.724,-42.997,-15.724
444,1436803448887,1.412,-42.997,-15.724
445,1436803448905,1.412,-42.997,-15.724
446,1436803448926,1.412,-42.997,-15.724
447,1436803448945,1.412,-42.997,-15.724
448,1436803448963,1.412,-42.997,-15.724
449,1436803448987,1.412,-42.997,-15.724
450,1436803449008,1.412,-42.997,-15.724
451,1436803449028,1.412,-42.997,-15.724
452,1436803449046,1.412,-42.997,-15.724
453,1436803449064,1.412,-42.997,-15.724
454,1436803449083,1.412,-42.997,-15.724
455,1436803449103,1.412,-42.997,-15.724
456,1436803449123,1.077,-42.997,-15.724
457,1436803449148,1.077,-42.997,-15.724
458,1436803449169,1.077,-42.997,-15.724
459,1436803449185,1.077,-42.997,-15.724
460,1436803449204,1.077,-42.997,-15.724
461,1436803449257,1.077,-42.997,-15.724
462,1436803449258,1.077,-42.997,-15.724
463,1436803449263,1.077,-42.997,-15.724
464,1436803449283,1.077,-42.997,-15.724
465,1436803449307,1.077,-42.997,-15.724
466,1436803449329,1.077,-42.997,-15.724
467,1436803449344,1.077,-42.997,-15.724
468,1436803449363,1.077,-42.997,-15.724
469,1436803449384,1.077,-42.997,-15.724
470,1436803449403,1.077,-42.997,-15.724
471,1436803449424,1.077,-42.997,-15.724
472,1436803449445,1.077,-42.997,-15.724
473,1436803449464,1.077,-42.997,-15.724
474,1436803449487,1.077,-42.997,-15.724
475,1436803449505,1.077,-42.997,-15.724
476,1436803449525,1.077,-42.997,-15.724
477,1436803449543,1.077,-42.997,-15.724
478,1436803449566,1.077,-42.997,-15.724
479,1436803449586,1.077,-42.997,-15.724
480,1436803449606,1.077,-42.997,-15.724
481,1436803449626,1.077,-42.997,-16.029
482,1436803449647,1.077,-42.997,-16.029
483,1436803449664,1.077,-42.997,-16.029
484,1436803449691,1.077,-42.997,-16.029
485,1436803449707,1.077,-42.997,-16.029
486,1436803449726,1.077,-42.997,-16.029
487,1436803449745,1.077,-42.997,-16.029
488,1436803449764,1.077,-42.997,-16.029
489,1436803449784,1.077,-42.997,-16.029
490,1436803449805,1.077,-42.997,-16.029
491,1436803449827,1.077,-42.997,-16.029
492,1436803449847,1.077,-42.997,-16.029
493,1436803449863,1.077,-42.997,-16.029
494,1436803449886,1.077,-42.997,-16.029
495,1436803449906,1.077,-42.997,-16.029
496,1436803449924,1.077,-42.997,-16.029
497,1436803449954,1.077,-42.997,-16.029
498,1436803450027,1.077,-42.997,-16.029
499,1436803450028,1.077,-42.997,-16.029
500,1436803450029,1.077,-42.997,-16.029
501,1436803450030,1.077,-42.997,-16.029
502,1436803450044,1.077,-42.997,-16.029
503,1436803450076,1.077,-42.997,-16.029
504,1436803450086,1.077,-42.997,-16.029
505,1436803450104,1.077,-42.997,-16.029
