id,attr_time,attr_x,attr_y,attr_z
1,1436621318071,30.32,-37.869,0.022
2,1436621318072,30.32,-37.869,0.022
3,1436621318073,30.32,-37.869,0.022
4,1436621318074,30.32,-37.869,0.022
5,1436621318075,30.32,-37.869,0.022
6,1436621318076,30.32,-37.869,0.022
7,1436621318077,30.32,-37.869,0.022
8,1436621318120,30.32,-37.869,0.022
9,1436621318121,30.32,-37.869,0.022
10,1436621318131,30.32,-37.869,0.022
11,1436621318147,30.32,-37.869,0.022
12,1436621318169,30.32,-37.869,0.022
13,1436621318189,30.32,-37.869,0.022
14,1436621318206,30.32,-37.869,0.022
15,1436621318226,30.32,-37.869,0.022
16,1436621318245,30.635,-37.869,0.022
17,1436621318265,30.635,-37.869,0.022
18,1436621318287,30.635,-37.869,0.022
19,1436621318316,30.635,-37.869,0.022
20,1436621318350,30.635,-37.869,0.022
21,1436621318351,30.635,-37.869,0.346
22,1436621318367,30.95,-37.869,0.346
23,1436621318385,30.95,-37.869,0.346
24,1436621318404,30.95,-37.869,0.346
25,1436621318425,30.95,-37.869,0.346
26,1436621318445,30.95,-37.869,0.346
27,1436621318466,30.95,-37.869,0.682
28,1436621318485,30.95,-37.869,0.682
29,1436621318509,30.95,-37.869,0.682
30,1436621318529,30.95,-37.869,0.682
31,1436621318549,30.95,-37.544,0.682
32,1436621318567,30.95,-37.544,0.682
33,1436621318585,30.95,-37.544,0.682
34,1436621318608,30.95,-37.544,0.682
35,1436621318628,30.95,-37.179,0.682
36,1436621318649,30.95,-37.179,1.039
37,1436621318669,30.95,-37.179,1.039
38,1436621318688,30.95,-37.179,1.039
39,1436621318705,30.95,-36.842,1.039
40,1436621318729,30.95,-36.842,1.039
41,1436621318747,30.95,-36.842,1.039
42,1436621318766,30.95,-36.842,1.039
43,1436621320130,30.95,-36.512,1.039
44,1436621320131,30.95,-36.512,1.039
45,1436621320132,30.95,-36.512,1.039
46,1436621320133,30.95,-36.512,1.039
47,1436621320134,30.95,-36.512,1.039
48,1436621320135,30.95,-36.512,1.039
49,1436621320136,30.95,-36.512,1.039
50,1436621320137,30.95,-36.512,1.039
51,1436621320138,30.95,-36.512,1.339
52,1436621320139,30.95,-36.512,1.339
53,1436621320140,30.95,-36.512,1.339
54,1436621320141,30.95,-36.512,1.339
55,1436621320142,30.95,-36.512,1.339
56,1436621320143,30.95,-36.512,1.339
57,1436621320144,30.95,-36.512,1.339
58,1436621320145,30.95,-36.512,1.339
59,1436621320146,30.95,-36.512,1.339
60,1436621320147,30.95,-36.512,1.339
61,1436621320148,30.95,-36.828,1.339
62,1436621320149,30.95,-36.828,1.339
63,1436621320150,30.95,-36.828,1.339
64,1436621320151,30.95,-36.828,1.339
65,1436621320152,30.95,-36.828,1.339
66,1436621320153,30.95,-36.828,1.339
67,1436621320154,30.95,-36.828,1.339
68,1436621320155,30.95,-36.828,1.339
69,1436621320156,30.95,-36.828,1.339
70,1436621320157,30.95,-36.828,1.339
71,1436621320158,30.95,-36.828,1.339
72,1436621320159,30.95,-36.828,1.339
73,1436621320160,30.95,-36.828,1.643
74,1436621320161,30.95,-36.828,1.643
75,1436621320162,30.95,-36.828,1.643
76,1436621320163,30.95,-36.495,1.643
77,1436621320164,30.95,-36.495,1.643
78,1436621320165,30.95,-36.495,1.643
79,1436621320166,30.95,-36.495,1.643
80,1436621320167,30.95,-36.495,1.643
81,1436621320168,30.95,-36.495,1.643
82,1436621320169,30.95,-36.495,1.643
83,1436621320170,30.95,-36.495,1.643
84,1436621320171,30.95,-36.495,1.643
85,1436621320172,30.95,-36.495,1.643
86,1436621320173,31.336,-36.495,1.643
87,1436621320174,31.336,-36.495,1.643
88,1436621320175,31.336,-36.495,1.643
89,1436621320176,31.336,-36.495,1.643
90,1436621320177,31.336,-36.495,1.643
91,1436621320178,31.336,-36.495,1.643
92,1436621320179,31.658,-36.495,1.643
93,1436621320180,31.658,-36.495,1.643
94,1436621320181,31.658,-36.495,1.643
95,1436621320182,31.658,-36.495,1.643
96,1436621320183,31.658,-36.495,1.643
97,1436621320184,31.658,-36.495,1.643
98,1436621320185,31.658,-36.495,1.643
99,1436621320186,31.658,-36.172,1.643
100,1436621320187,31.658,-36.172,1.643
101,1436621320188,31.658,-36.172,1.643
102,1436621320189,31.658,-36.172,1.643
103,1436621320190,31.658,-36.172,1.643
104,1436621320191,31.658,-36.172,1.643
105,1436621320192,31.658,-36.172,1.643
106,1436621320193,31.658,-36.172,1.643
107,1436621320194,31.658,-35.868,1.324
108,1436621320195,31.658,-35.868,1.324
109,1436621320196,31.658,-35.868,1.324
110,1436621320197,31.658,-35.868,1.324
111,1436621320198,31.965,-35.868,1.324
112,1436621320199,31.965,-35.868,1.324
113,1436621320200,31.965,-35.868,1.324
114,1436621320205,31.965,-35.868,1.324
115,1436621320225,31.965,-35.868,1.324
116,1436621320245,31.965,-35.868,1.324
117,1436621320265,31.965,-35.868,1.324
118,1436621320285,31.965,-35.868,1.324
119,1436621320306,31.965,-35.868,1.324
120,1436621320326,31.965,-35.868,1.324
121,1436621320346,31.965,-35.868,1.016
122,1436621320368,31.965,-35.868,1.016
123,1436621320388,31.965,-35.562,1.016
124,1436621320407,31.965,-35.562,1.016
125,1436621320428,31.965,-35.562,1.016
126,1436621320450,31.965,-35.562,1.016
127,1436621320468,31.965,-35.562,1.016
128,1436621320488,31.965,-35.562,1.016
129,1436621320507,31.965,-35.229,1.016
130,1436621320526,31.965,-35.229,1.016
131,1436621320549,31.965,-35.229,1.016
132,1436621320569,31.965,-35.229,1.016
133,1436621320591,31.965,-35.229,0.682
134,1436621320606,31.965,-35.229,0.682
135,1436621320628,31.965,-35.229,0.682
136,1436621320648,31.965,-35.229,0.682
137,1436621320668,31.965,-34.922,0.682
138,1436621320693,31.965,-34.922,0.682
139,1436621320706,31.965,-34.922,0.682
140,1436621320729,31.965,-34.922,0.682
141,1436621320746,31.965,-34.922,0.682
142,1436621320767,31.965,-34.922,0.682
143,1436621320788,32.299,-34.922,0.682
144,1436621320808,32.299,-34.922,0.682
145,1436621320830,32.299,-34.922,0.682
146,1436621320851,32.299,-34.922,0.682
147,1436621320871,32.666,-34.922,0.682
148,1436621320891,32.666,-34.922,0.682
149,1436621320909,32.666,-34.922,0.369
150,1436621320929,32.666,-34.922,0.369
151,1436621320951,32.666,-34.922,0.369
152,1436621320971,33.023,-34.922,0.369
153,1436621320991,33.023,-34.922,0.369
154,1436621321008,33.023,-34.922,0.369
155,1436621321031,33.023,-34.922,0.369
156,1436621321052,33.023,-34.922,0.369
157,1436621321068,33.023,-34.922,0.369
158,1436621321088,33.023,-34.922,0.369
159,1436621321108,33.023,-34.922,0.012
160,1436621321128,33.023,-34.57,0.012
161,1436621321148,33.023,-34.57,0.012
162,1436621321168,33.023,-34.57,0.012
163,1436621321189,33.023,-34.57,0.012
164,1436621321208,33.023,-34.57,0.012
165,1436621321230,33.023,-34.57,0.012
166,1436621321248,33.023,-34.57,0.012
167,1436621321269,33.023,-34.57,0.012
168,1436621321290,33.023,-34.23,0.012
169,1436621321377,33.023,-34.23,0.012
170,1436621321378,33.023,-34.23,0.012
171,1436621321379,33.023,-34.23,0.012
172,1436621321380,33.023,-34.23,0.012
173,1436621321389,33.023,-34.23,0.012
174,1436621321410,33.023,-34.23,0.012
175,1436621321431,33.023,-34.23,0.012
176,1436621321449,33.023,-34.23,0.012
177,1436621321468,33.326,-34.23,0.012
178,1436621321489,33.326,-34.23,0.012
179,1436621321511,33.326,-34.23,0.012
180,1436621321531,33.326,-34.23,0.012
181,1436621321549,33.326,-34.23,0.012
182,1436621321568,33.326,-34.542,0.012
183,1436621321590,33.326,-34.542,0.326
184,1436621321609,33.326,-34.542,0.326
185,1436621321630,33.326,-34.542,0.326
186,1436621321649,33.326,-34.542,0.326
187,1436621321669,33.326,-34.542,0.326
188,1436621321698,33.326,-34.542,0.675
189,1436621321709,32.986,-34.542,0.675
190,1436621321729,32.986,-34.542,0.675
191,1436621321749,32.986,-34.542,0.675
192,1436621321768,32.629,-34.542,0.675
193,1436621321791,32.629,-34.542,1.022
194,1436621321810,32.629,-34.542,1.022
195,1436621321829,32.267,-34.542,1.022
196,1436621321850,32.267,-34.864,1.347
197,1436621321869,32.267,-34.864,1.347
198,1436621321890,31.927,-34.864,1.736
199,1436621321909,31.927,-35.183,1.736
200,1436621321932,31.927,-35.183,3.334
201,1436621321950,31.927,-35.183,3.334
202,1436621321971,31.567,-35.511,3.906
203,1436621321991,31.567,-35.511,4.461
204,1436621322011,31.567,-35.511,5.166
205,1436621322040,31.124,-35.511,5.166
206,1436621322115,31.124,-35.859,5.485
207,1436621322116,31.124,-35.859,5.834
208,1436621322117,30.816,-35.859,5.834
209,1436621322118,30.816,-36.215,5.834
210,1436621322130,30.816,-36.215,6.373
211,1436621322151,30.816,-36.215,6.373
212,1436621322170,30.816,-36.535,6.373
213,1436621322189,30.516,-36.535,6.927
214,1436621322210,30.516,-36.535,6.927
215,1436621322229,30.516,-36.924,6.927
216,1436621322253,30.516,-36.924,6.536
217,1436621322271,30.516,-36.924,6.536
218,1436621322291,30.516,-36.924,6.536
219,1436621322310,30.516,-36.924,7.032
220,1436621322332,30.516,-36.924,7.032
221,1436621322350,30.516,-36.924,7.032
222,1436621322371,30.169,-36.924,7.385
223,1436621322392,30.169,-37.243,7.385
224,1436621322413,30.169,-37.243,7.385
225,1436621322431,30.169,-37.243,7.385
226,1436621322450,30.169,-37.243,7.768
227,1436621322471,30.169,-37.243,7.768
228,1436621322492,30.169,-37.576,7.768
229,1436621322511,30.169,-37.576,7.768
230,1436621322530,30.169,-37.576,7.768
231,1436621322552,30.169,-37.576,7.768
232,1436621322572,30.169,-37.576,7.768
233,1436621322593,30.169,-37.576,7.768
234,1436621322613,29.756,-37.576,7.768
235,1436621322631,29.756,-37.576,7.768
236,1436621322654,29.756,-37.576,7.768
237,1436621322672,29.756,-37.576,7.768
238,1436621322692,29.383,-37.576,7.768
239,1436621322713,29.383,-37.904,7.768
240,1436621322733,29.383,-37.904,7.768
241,1436621322750,29.383,-37.904,7.768
242,1436621322780,29.025,-37.904,7.768
243,1436621322851,29.025,-37.904,7.768
244,1436621322852,29.025,-37.904,7.768
245,1436621322853,28.691,-37.904,7.768
246,1436621322854,28.691,-37.904,8.074
247,1436621322871,28.691,-37.904,8.074
248,1436621322894,28.691,-37.904,8.074
249,1436621322910,28.326,-37.904,8.074
250,1436621322930,28.326,-37.904,8.074
251,1436621322953,28.326,-37.904,8.074
252,1436621322970,28.326,-37.904,8.074
253,1436621322993,28.326,-37.904,8.389
254,1436621323031,28.326,-38.227,8.389
255,1436621323035,28.326,-38.227,8.389
256,1436621323050,28.326,-38.227,8.389
257,1436621323070,28.326,-38.227,8.389
258,1436621323090,28.326,-38.227,8.389
259,1436621323110,28.326,-38.227,8.389
260,1436621323130,28.326,-38.227,8.389
261,1436621323154,28.326,-38.227,8.711
262,1436621323173,28.326,-38.227,8.711
263,1436621323194,28.326,-38.557,8.711
264,1436621323214,28.326,-38.557,8.711
265,1436621323235,28.326,-38.557,8.711
266,1436621323252,28.326,-38.557,8.711
267,1436621323273,28.326,-38.557,8.711
268,1436621323291,28.326,-38.557,8.711
269,1436621323312,28.326,-38.557,8.711
270,1436621323332,28.326,-38.557,8.711
271,1436621323353,28.326,-38.865,8.711
272,1436621323370,28.326,-38.865,9.017
273,1436621323393,28.326,-38.865,9.017
274,1436621323414,28.326,-38.865,9.017
275,1436621323433,28.326,-38.865,9.017
276,1436621323451,28.326,-38.865,9.017
277,1436621323473,28.326,-38.865,9.017
278,1436621323493,28.326,-38.865,9.017
279,1436621323581,28.326,-38.865,9.017
280,1436621323582,28.326,-38.865,9.017
281,1436621323583,28.634,-38.865,9.017
282,1436621323584,28.634,-38.865,9.017
283,1436621323592,28.634,-38.865,9.336
284,1436621323612,28.634,-38.865,9.336
285,1436621323634,28.634,-38.865,9.336
286,1436621323650,28.634,-38.865,9.336
287,1436621323671,28.634,-38.865,9.336
288,1436621323704,28.634,-38.865,9.336
289,1436621323713,28.634,-38.865,9.336
290,1436621323734,28.634,-38.865,9.336
291,1436621323752,28.634,-38.865,9.336
292,1436621323771,28.634,-38.865,9.336
293,1436621323794,28.634,-38.865,9.336
294,1436621323814,28.634,-38.865,9.336
295,1436621323834,28.634,-38.865,9.336
296,1436621323854,28.259,-38.865,9.336
297,1436621323874,28.259,-38.865,9.336
298,1436621323894,28.259,-38.865,9.336
299,1436621323914,28.259,-38.865,9.336
300,1436621323934,28.259,-38.865,9.336
301,1436621323954,28.259,-38.865,9.336
302,1436621323972,28.259,-38.865,9.336
303,1436621323994,27.922,-38.865,9.336
304,1436621324014,27.922,-38.865,9.336
305,1436621324034,27.922,-38.865,9.336
306,1436621324054,27.922,-38.865,9.336
307,1436621324074,27.592,-38.865,9.336
308,1436621324092,27.592,-38.865,9.336
309,1436621324114,27.592,-38.865,9.336
310,1436621324134,27.592,-38.865,9.336
311,1436621324154,27.592,-38.865,9.336
312,1436621324174,27.592,-38.865,9.336
313,1436621324192,27.592,-39.215,9.336
314,1436621324213,27.239,-39.215,9.336
315,1436621324240,27.239,-39.215,9.336
316,1436621324315,27.239,-39.215,9.336
317,1436621324316,27.239,-39.215,9.336
318,1436621324317,26.811,-39.515,8.95
319,1436621324318,26.811,-39.515,8.95
320,1436621324333,26.811,-39.515,8.95
321,1436621324351,26.466,-39.515,8.613
322,1436621324372,26.466,-39.515,8.613
323,1436621324391,26.466,-39.515,8.613
324,1436621324414,26.466,-39.831,8.3
325,1436621324431,26.466,-39.831,8.3
326,1436621324456,26.107,-39.831,8.3
327,1436621324475,26.107,-39.831,7.861
328,1436621324495,26.107,-39.831,7.861
329,1436621324514,26.107,-39.831,7.861
330,1436621324559,26.107,-39.831,7.452
331,1436621324560,25.798,-39.831,7.452
332,1436621324592,25.798,-39.831,7.452
333,1436621324600,25.798,-39.831,7.151
334,1436621324611,25.798,-39.831,7.151
335,1436621324631,25.798,-39.831,7.151
336,1436621324651,25.798,-40.144,7.151
337,1436621324673,25.798,-40.144,6.835
338,1436621324697,25.798,-40.144,6.835
339,1436621324711,26.116,-40.144,6.835
340,1436621324734,26.116,-40.144,6.835
341,1436621324755,26.116,-40.449,6.835
342,1436621324774,26.116,-40.449,6.835
343,1436621324795,26.116,-40.449,6.835
344,1436621324816,26.116,-40.449,6.835
345,1436621324835,26.116,-40.449,6.494
346,1436621324855,26.116,-40.449,6.494
347,1436621324875,26.116,-40.449,6.494
348,1436621324895,26.116,-40.794,6.494
349,1436621324915,26.116,-40.794,6.494
350,1436621324936,26.116,-40.794,6.188
351,1436621324955,26.116,-40.794,6.188
352,1436621324974,26.116,-41.111,6.188
353,1436621325048,26.116,-41.111,6.188
354,1436621325049,26.116,-41.111,6.188
355,1436621325050,26.116,-41.111,5.882
356,1436621325052,26.116,-41.462,5.882
357,1436621325073,26.116,-41.462,5.882
358,1436621325095,25.808,-41.462,5.882
359,1436621325112,25.808,-41.462,5.491
360,1436621325132,25.808,-41.819,5.491
361,1436621325153,25.808,-41.819,5.491
362,1436621325172,25.402,-41.819,5.049
363,1436621325197,25.402,-41.819,5.049
364,1436621325213,25.402,-41.819,5.049
365,1436621325238,25.402,-42.156,4.734
366,1436621325297,25.018,-42.156,4.734
367,1436621325298,25.018,-42.156,4.734
368,1436621325299,25.018,-42.156,4.396
369,1436621325313,24.664,-42.156,4.396
370,1436621325332,24.664,-42.156,4.396
371,1436621325352,24.664,-42.156,4.396
372,1436621325372,24.349,-42.463,4.396
373,1436621325392,24.349,-42.463,4.057
374,1436621325413,24.349,-42.463,4.057
375,1436621325432,24.026,-42.463,4.057
376,1436621325452,24.026,-42.463,4.057
377,1436621325473,24.026,-42.463,4.057
378,1436621325493,23.686,-42.463,3.735
379,1436621325513,23.686,-42.463,3.735
380,1436621325532,23.686,-42.463,3.735
381,1436621325553,23.686,-42.794,3.735
382,1436621325572,23.306,-42.794,3.735
383,1436621325593,23.306,-42.794,3.735
384,1436621325614,23.306,-42.794,3.382
385,1436621325633,23.306,-42.794,3.382
386,1436621325654,22.956,-42.794,3.382
387,1436621325674,22.956,-43.098,3.076
388,1436621325695,22.956,-43.098,3.076
389,1436621325739,22.956,-43.098,2.758
390,1436621325740,22.956,-43.098,2.758
391,1436621325756,22.956,-43.098,2.435
392,1436621325773,22.956,-43.098,2.435
393,1436621325793,22.956,-43.098,1.736
394,1436621325815,22.956,-43.098,1.736
395,1436621325836,22.956,-43.098,1.399
396,1436621325853,22.956,-43.098,1.399
397,1436621325874,23.31,-43.098,0.923
398,1436621325891,23.31,-43.098,0.923
399,1436621325914,23.31,-43.098,0.923
400,1436621325932,23.31,-43.098,0.923
401,1436621325956,23.31,-43.098,0.471
402,1436621325975,23.31,-43.098,0.471
403,1436621325993,23.31,-43.098,0.059
404,1436621326014,23.31,-43.098,0.059
405,1436621326036,23.31,-43.098,0.059
406,1436621326052,23.31,-43.098,-0.386
407,1436621326077,23.31,-43.098,-0.386
408,1436621326097,23.31,-43.098,-0.386
409,1436621326116,23.31,-43.098,-0.805
410,1436621326136,22.801,-43.4,-0.805
411,1436621326153,22.34,-43.4,-0.805
412,1436621326177,21.73,-43.4,-1.191
413,1436621326197,21.73,-43.4,-1.191
414,1436621326217,21.401,-43.4,-1.191
415,1436621326237,21.401,-43.701,-1.513
416,1436621326257,21.812,-43.701,-1.513
417,1436621326276,21.812,-43.701,-1.513
418,1436621326296,21.812,-43.701,-1.884
419,1436621326316,22.148,-43.701,-1.884
420,1436621326337,22.753,-43.701,-1.884
421,1436621326357,23.561,-43.701,-1.884
422,1436621326377,24.404,-43.701,-1.884
423,1436621326395,25.044,-43.382,-1.884
424,1436621326422,25.608,-43.382,-1.884
425,1436621326480,25.608,-43.382,-1.884
426,1436621326481,26.31,-42.819,-1.884
427,1436621326482,26.31,-42.819,-1.884
428,1436621326499,26.31,-42.387,-1.884
429,1436621326515,26.895,-42.387,-1.46
430,1436621326535,27.398,-41.88,-1.072
431,1436621326555,27.717,-41.88,-1.072
432,1436621326574,28.782,-41.271,-0.624
433,1436621326605,29.544,-40.922,-0.051
434,1436621326622,29.853,-40.402,-0.051
435,1436621326634,30.694,-39.485,0.494
436,1436621326655,31.394,-38.461,0.901
437,1436621326704,31.394,-36.851,0.416
438,1436621326705,31.394,-35.896,0.416
439,1436621326714,31.394,-35.392,0.724
440,1436621326736,31.724,-35.392,1.098
441,1436621326754,32.035,-34.953,1.098
442,1436621326774,32.035,-34.953,1.098
443,1436621326794,31.684,-34.596,1.098
444,1436621326819,31.336,-34.596,1.547
445,1436621326834,31.336,-35.174,1.547
446,1436621326856,31.336,-35.879,1.98
447,1436621326874,31.802,-36.207,1.98
448,1436621326894,31.802,-35.791,1.98
449,1436621326912,31.802,-36.091,1.98
450,1436621326932,31.802,-35.626,1.98
451,1436621326953,31.802,-35.626,1.98
452,1436621326975,32.252,-35.26,1.98
453,1436621326995,32.252,-35.26,1.539
454,1436621327017,32.624,-35.26,0.982
455,1436621327037,32.624,-34.857,-0.521
456,1436621327055,32.624,-34.857,-1.33
457,1436621327074,32.929,-34.857,-1.728
458,1436621327097,32.929,-34.857,-2.314
459,1436621327113,32.929,-34.857,-2.847
460,1436621327136,32.929,-34.857,-3.277
461,1436621327158,32.929,-34.857,-3.277
462,1436621327175,32.929,-34.857,-3.602
463,1436621327194,32.929,-34.857,-3.602
464,1436621327213,32.929,-34.857,-3.228
465,1436621327233,32.929,-34.555,-3.228
466,1436621327253,32.929,-34.555,-2.92
467,1436621327278,32.929,-34.555,-2.92
468,1436621327294,32.929,-34.555,-2.92
469,1436621327314,32.929,-34.555,-2.92
470,1436621327338,32.929,-34.193,-2.92
471,1436621327358,32.929,-34.193,-2.92
472,1436621327378,32.929,-34.193,-2.92
473,1436621327397,32.929,-34.193,-2.92
474,1436621327414,32.929,-33.836,-3.222
475,1436621327438,32.929,-33.836,-3.222
476,1436621327458,33.303,-33.836,-3.222
477,1436621327478,33.303,-33.836,-3.222
478,1436621327500,33.303,-33.836,-2.742
479,1436621327518,32.997,-33.836,-1.518
480,1436621327536,32.997,-33.836,-0.627
481,1436621327558,32.997,-33.836,0.064
482,1436621327575,32.537,-34.251,0.611
483,1436621327595,32.098,-35.502,1.037
484,1436621327615,31.536,-36.582,1.037
485,1436621327639,31.077,-37.359,1.037
486,1436621327657,30.709,-37.359,1.037
487,1436621327678,30.313,-37.884,1.037
488,1436621327698,30.313,-37.884,0.466
489,1436621327716,30.313,-37.884,0.466
490,1436621327738,30.313,-37.884,0.466
491,1436621327756,30.313,-37.884,0.466
492,1436621327774,30.313,-37.884,0.466
493,1436621327798,30.313,-37.884,0.466
494,1436621327829,30.905,-37.429,0.466
495,1436621327840,31.646,-36.662,0.466
496,1436621327854,31.13,-37.527,0.466
497,1436621327874,31.13,-37.527,0.466
498,1436621327897,31.13,-37.527,0.466
499,1436621327915,30.607,-37.527,0.466
500,1436621327935,30.607,-37.867,0.466
501,1436621327955,30.607,-37.867,-0.035
502,1436621327975,30.607,-37.867,-0.45
503,1436621327995,30.607,-37.867,-0.45
504,1436621328015,30.96,-37.867,-0.45
505,1436621328035,30.96,-37.489,-0.808
506,1436621328098,30.96,-36.706,-0.808
507,1436621328099,30.96,-35.44,-0.808
508,1436621328100,31.463,-34.312,-1.222
509,1436621328115,31.463,-33.125,-1.222
510,1436621328135,32.278,-32.247,-1.618
511,1436621328156,32.98,-31.256,-1.618
512,1436621328176,33.834,-30.917,-1.618
513,1436621328198,34.217,-30.917,-2.017
514,1436621328218,35.252,-30.444,-2.017
515,1436621328237,36.558,-30.444,-2.017
516,1436621328258,36.558,-30.891,-2.017
517,1436621328279,36.558,-30.891,-2.017
