id,attr_time,attr_x,attr_y,attr_z
1,1437501408021,-3.018,-41.921,-24.942
2,1437501408055,-3.018,-41.921,-24.942
3,1437501408062,-3.018,-41.921,-24.942
4,1437501408082,-3.018,-41.921,-24.942
5,1437501408102,-3.018,-41.921,-24.942
6,1437501408125,-3.018,-41.921,-24.942
7,1437501408141,-3.018,-41.921,-24.942
8,1437501408163,-3.018,-41.921,-24.942
9,1437501408181,-3.018,-41.921,-24.942
10,1437501408204,-3.018,-41.921,-24.942
11,1437501408226,-3.018,-41.921,-24.942
12,1437501408243,-3.018,-41.921,-24.942
13,1437501408263,-3.018,-41.921,-24.942
14,1437501408283,-3.018,-41.921,-24.942
15,1437501408305,-3.018,-41.921,-24.942
16,1437501408323,-3.018,-41.921,-24.942
17,1437501408343,-3.018,-41.921,-24.942
18,1437501408365,-3.018,-41.921,-24.942
19,1437501408382,-3.018,-41.921,-24.942
20,1437501408402,-3.018,-41.921,-24.942
21,1437501408422,-3.018,-41.921,-24.942
22,1437501408445,-3.018,-41.921,-24.942
23,1437501408467,-3.018,-41.921,-24.942
24,1437501408488,-3.018,-41.921,-24.942
25,1437501408503,-3.018,-41.921,-24.942
26,1437501408522,-3.018,-41.921,-24.942
27,1437501408542,-3.018,-41.921,-24.942
28,1437501408562,-3.018,-41.921,-24.942
29,1437501408585,-3.018,-41.921,-24.942
30,1437501408604,-3.018,-41.921,-24.942
31,1437501408654,-3.018,-41.921,-24.942
32,1437501408655,-3.018,-41.921,-24.942
33,1437501408671,-3.018,-41.921,-24.942
34,1437501408682,-3.018,-41.921,-24.942
35,1437501408705,-3.018,-41.921,-24.942
36,1437501408722,-3.018,-41.921,-24.942
37,1437501408742,-3.018,-41.921,-24.942
38,1437501408764,-3.018,-41.921,-24.942
39,1437501408783,-3.018,-41.921,-24.942
40,1437501408804,-3.018,-41.921,-24.942
41,1437501408822,-3.018,-41.921,-24.942
42,1437501408842,-3.018,-41.61,-24.942
43,1437501408863,-3.018,-41.61,-24.942
44,1437501408885,-3.018,-41.61,-24.942
45,1437501408905,-3.018,-41.61,-24.942
46,1437501408925,-3.018,-41.61,-25.28
47,1437501408943,-3.018,-41.61,-25.28
48,1437501408964,-3.018,-41.61,-25.28
49,1437501408985,-3.018,-41.61,-25.28
50,1437501409005,-3.018,-41.61,-25.28
51,1437501409026,-3.018,-41.61,-25.28
52,1437501409044,-3.018,-41.61,-25.28
53,1437501409065,-3.018,-41.61,-25.28
54,1437501409086,-3.018,-41.61,-25.28
55,1437501409103,-3.018,-41.61,-25.28
56,1437501409125,-3.018,-41.61,-25.28
57,1437501409146,-3.018,-41.61,-25.28
58,1437501409167,-3.018,-41.61,-25.59
59,1437501409189,-3.018,-41.61,-25.59
60,1437501409207,-3.018,-41.61,-25.59
61,1437501409225,-3.018,-41.61,-25.59
62,1437501409245,-3.018,-41.61,-25.59
63,1437501409264,-3.018,-41.61,-25.59
64,1437501409286,-3.018,-41.61,-25.59
65,1437501409305,-2.709,-41.282,-25.926
66,1437501409325,-2.709,-41.282,-25.926
67,1437501409373,-2.709,-41.282,-25.926
68,1437501409374,-2.709,-41.282,-25.926
69,1437501409393,-2.709,-40.965,-25.926
70,1437501409403,-2.709,-40.965,-26.237
71,1437501409426,-2.709,-40.965,-26.237
72,1437501409443,-2.709,-40.965,-26.237
73,1437501409463,-2.709,-40.965,-26.237
74,1437501409484,-2.709,-40.614,-26.237
75,1437501409505,-2.709,-40.614,-26.237
76,1437501409524,-2.709,-40.614,-26.237
77,1437501409545,-2.709,-40.614,-26.237
78,1437501409564,-2.709,-40.614,-26.576
79,1437501409583,-2.709,-40.614,-26.576
80,1437501409606,-2.709,-40.614,-26.576
81,1437501409623,-2.709,-40.296,-26.576
82,1437501409644,-2.709,-40.296,-26.576
83,1437501409664,-2.709,-40.296,-26.576
84,1437501409685,-2.709,-40.296,-26.576
85,1437501409703,-2.709,-40.296,-26.576
86,1437501409738,-2.709,-40.296,-26.576
87,1437501409743,-2.709,-40.296,-26.576
88,1437501409763,-2.709,-40.296,-26.576
89,1437501409787,-2.709,-40.296,-26.576
90,1437501409803,-2.709,-40.296,-26.576
91,1437501409825,-2.709,-40.296,-26.576
92,1437501409844,-2.709,-40.296,-26.576
93,1437501409864,-2.709,-39.95,-26.576
94,1437501409888,-2.709,-39.95,-26.576
95,1437501409908,-2.709,-39.95,-26.576
96,1437501409929,-2.709,-39.95,-26.576
97,1437501409944,-2.709,-39.95,-26.954
98,1437501409963,-2.709,-39.535,-26.954
99,1437501409983,-3.038,-39.535,-26.954
100,1437501410003,-3.038,-39.535,-26.954
101,1437501410026,-3.038,-39.21,-26.954
102,1437501410045,-3.038,-39.21,-27.297
103,1437501410100,-3.038,-39.21,-27.297
104,1437501410112,-3.038,-38.822,-27.297
105,1437501410113,-3.038,-38.822,-27.659
106,1437501410126,-3.038,-38.487,-27.659
107,1437501410146,-3.038,-38.487,-28.027
108,1437501410174,-3.038,-38.156,-28.027
109,1437501410186,-3.038,-38.156,-28.364
110,1437501410204,-3.038,-37.799,-28.364
111,1437501410238,-2.662,-37.799,-28.782
112,1437501410249,-2.662,-37.411,-28.782
113,1437501410266,-2.662,-37.411,-29.141
114,1437501410285,-2.351,-37.051,-29.141
115,1437501410306,-2.351,-37.051,-29.141
116,1437501410327,-2.351,-36.65,-29.591
117,1437501410346,-1.896,-36.65,-29.591
118,1437501410367,-1.896,-36.126,-29.591
119,1437501410386,-1.463,-36.126,-30.014
120,1437501410407,-1.463,-35.813,-30.014
121,1437501410427,-1.463,-35.813,-30.378
122,1437501410445,-1.002,-35.38,-30.378
123,1437501410467,-1.002,-35.38,-30.691
124,1437501410488,-1.002,-35.028,-30.691
125,1437501410506,-0.598,-35.028,-30.691
126,1437501410527,-0.598,-34.706,-31.076
127,1437501410544,-0.598,-34.706,-31.076
128,1437501410566,-0.598,-34.706,-31.076
129,1437501410587,-0.292,-34.3,-31.076
130,1437501410606,-0.292,-34.3,-31.076
131,1437501410626,-0.292,-34.3,-31.419
132,1437501410644,-0.292,-34.3,-31.419
133,1437501410667,-0.292,-34.3,-31.419
134,1437501410688,-0.292,-33.982,-31.419
135,1437501410707,-0.292,-33.982,-31.419
136,1437501410727,-0.292,-33.982,-31.419
137,1437501410746,-0.634,-33.982,-31.721
138,1437501410767,-0.634,-33.982,-31.721
139,1437501410786,-0.634,-33.982,-31.721
140,1437501410808,-1.04,-33.982,-31.721
141,1437501410879,-1.04,-33.982,-31.721
142,1437501410880,-1.362,-34.402,-31.721
143,1437501410881,-1.362,-34.402,-31.721
144,1437501410884,-1.858,-34.703,-31.721
145,1437501410908,-2.848,-34.703,-31.312
146,1437501410928,-3.733,-35.025,-31.312
147,1437501410944,-4.598,-35.025,-31.312
148,1437501410964,-5.581,-35.404,-30.908
149,1437501410998,-6.335,-35.404,-30.908
150,1437501411006,-6.947,-35.964,-30.908
151,1437501411025,-7.667,-36.279,-30.519
152,1437501411045,-8.46,-36.804,-30.076
153,1437501411069,-9.046,-36.804,-29.507
154,1437501411088,-9.729,-37.419,-29.04
155,1437501411107,-9.729,-37.419,-29.04
156,1437501411126,-10.171,-37.419,-28.456
157,1437501411147,-10.691,-37.759,-28.456
158,1437501411166,-10.691,-37.759,-28.079
159,1437501411187,-11.329,-38.104,-28.079
160,1437501411206,-11.882,-38.104,-27.497
161,1437501411228,-11.882,-38.104,-27.497
162,1437501411247,-12.678,-38.439,-27.497
163,1437501411268,-12.678,-38.439,-26.829
164,1437501411285,-12.986,-38.771,-26.829
165,1437501411308,-13.33,-38.771,-26.829
166,1437501411327,-13.33,-39.12,-26.829
167,1437501411347,-13.33,-39.12,-26.829
168,1437501411367,-13.894,-39.12,-26.501
169,1437501411388,-14.523,-39.526,-26.501
170,1437501411408,-14.523,-39.526,-26.13
171,1437501411427,-15.066,-39.526,-26.13
172,1437501411448,-15.066,-39.828,-25.794
173,1437501411468,-15.39,-39.828,-25.794
174,1437501411488,-15.39,-39.828,-25.794
175,1437501411509,-15.39,-39.828,-25.436
176,1437501411528,-15.39,-39.828,-25.436
177,1437501411547,-15.39,-39.828,-25.436
178,1437501411603,-15.39,-39.828,-25.436
179,1437501411617,-15.058,-39.828,-25.436
180,1437501411618,-15.058,-39.828,-25.436
181,1437501411626,-15.058,-39.828,-25.436
182,1437501411655,-15.058,-39.828,-25.436
183,1437501411668,-15.058,-39.466,-26.434
184,1437501411685,-15.058,-39.466,-27.569
185,1437501411706,-15.058,-38.775,-27.569
186,1437501411725,-15.058,-38.166,-28.274
187,1437501411749,-15.058,-37.686,-29.046
188,1437501411765,-14.404,-37.197,-29.855
189,1437501411788,-13.627,-36.572,-29.855
190,1437501411805,-12.974,-36.256,-30.476
191,1437501411828,-12.313,-35.868,-30.476
192,1437501411848,-11.859,-35.868,-31.192
193,1437501411867,-11.357,-35.159,-31.533
194,1437501411888,-11.357,-34.819,-31.9
195,1437501411908,-10.069,-34.364,-32.957
196,1437501411928,-9.248,-34.364,-33.76
197,1437501411948,-8.454,-33.914,-33.76
198,1437501411968,-8.454,-33.914,-33.76
199,1437501411986,-7.916,-33.335,-34.413
200,1437501412008,-7.572,-33.335,-34.413
201,1437501412028,-7.234,-33.335,-34.413
202,1437501412048,-6.903,-33.335,-34.84
203,1437501412068,-6.903,-33.006,-34.84
204,1437501412088,-6.445,-33.006,-34.498
205,1437501412108,-6.803,-33.006,-34.498
206,1437501412131,-6.803,-33.006,-33.917
207,1437501412150,-6.803,-33.006,-33.917
208,1437501412166,-6.803,-33.006,-33.917
209,1437501412190,-6.803,-33.006,-33.917
210,1437501412205,-6.803,-33.006,-34.226
211,1437501412230,-6.803,-33.006,-34.226
212,1437501412259,-6.803,-33.006,-34.226
213,1437501412338,-6.803,-33.006,-34.226
214,1437501412339,-6.803,-33.006,-34.226
215,1437501412340,-6.803,-33.006,-34.226
216,1437501412341,-6.486,-33.346,-34.226
217,1437501412346,-6.486,-34.751,-33.641
218,1437501412372,-6.486,-35.237,-32.728
219,1437501412386,-6.486,-35.87,-32.072
220,1437501412406,-6.794,-36.471,-31.193
221,1437501412426,-6.794,-36.914,-31.193
222,1437501412446,-7.554,-37.399,-31.193
223,1437501412467,-7.945,-37.399,-30.529
224,1437501412486,-7.945,-38.461,-29.829
225,1437501412506,-8.316,-38.839,-29.829
226,1437501412532,-8.316,-39.253,-29.829
227,1437501412545,-8.316,-39.604,-29.093
228,1437501412565,-8.845,-40.264,-28.292
229,1437501412585,-8.845,-40.264,-28.292
230,1437501412605,-8.845,-41.204,-27.755
231,1437501412625,-8.845,-41.204,-27.755
232,1437501412645,-8.845,-41.204,-27.755
233,1437501412665,-8.845,-41.204,-27.755
234,1437501412685,-9.277,-41.204,-27.346
235,1437501412707,-9.277,-41.204,-27.85
236,1437501412726,-9.277,-41.664,-27.409
237,1437501412746,-9.588,-41.664,-27.409
238,1437501412765,-9.588,-41.664,-27.409
239,1437501412785,-9.588,-41.664,-27.409
240,1437501412807,-9.588,-41.664,-27.409
241,1437501412825,-9.588,-41.664,-27.409
242,1437501412847,-9.896,-41.664,-27.082
243,1437501412866,-9.896,-41.664,-27.082
244,1437501412885,-9.896,-41.664,-27.082
245,1437501412905,-10.229,-41.664,-27.082
246,1437501412925,-10.229,-41.664,-26.765
247,1437501412945,-10.229,-41.664,-26.765
248,1437501412969,-10.549,-41.664,-26.765
249,1437501412986,-10.549,-41.664,-26.765
250,1437501413007,-10.549,-41.664,-26.765
251,1437501413028,-10.549,-41.091,-27.113
252,1437501413045,-10.549,-39.639,-28.431
253,1437501413066,-10.549,-38.734,-30.097
254,1437501413085,-10.549,-37.815,-31.143
255,1437501413106,-10.549,-36.911,-32.15
256,1437501413125,-10.549,-35.864,-33.091
257,1437501413145,-10.215,-35.272,-33.595
258,1437501413165,-9.501,-34.548,-34.072
259,1437501413185,-8.827,-33.935,-34.4
260,1437501413205,-8.164,-33.534,-34.78
261,1437501413226,-7.247,-33.049,-35.449
262,1437501413246,-6.475,-32.681,-35.449
263,1437501413265,-5.842,-32.681,-35.449
264,1437501413285,-5.407,-32.681,-35.449
265,1437501413306,-5.407,-32.681,-35.449
266,1437501413326,-4.765,-32.681,-35.449
267,1437501413361,-5.197,-32.681,-35.124
268,1437501413365,-5.197,-33.229,-35.124
269,1437501413386,-5.197,-33.74,-34.597
270,1437501413406,-5.699,-34.063,-34.597
271,1437501413427,-5.699,-34.063,-34.597
272,1437501413446,-6.069,-34.42,-34.597
273,1437501413466,-6.527,-34.721,-34.597
274,1437501413486,-6.527,-35.31,-34.597
275,1437501413506,-7.057,-36.34,-32.731
276,1437501413526,-7.557,-37.031,-32.223
277,1437501413546,-8.175,-37.786,-31.425
278,1437501413566,-8.175,-38.641,-30.302
279,1437501413587,-8.175,-39.445,-30.302
280,1437501413606,-8.175,-39.445,-29.991
281,1437501413626,-8.175,-40.048,-29.472
282,1437501413647,-8.175,-40.484,-29.472
283,1437501413666,-8.779,-41.131,-28.5
284,1437501413686,-9.492,-41.131,-27.822
285,1437501413706,-9.956,-41.131,-27.822
286,1437501413726,-9.956,-41.131,-27.142
287,1437501413746,-10.404,-41.131,-27.142
288,1437501413766,-10.018,-41.131,-27.693
289,1437501413786,-9.698,-41.131,-28.041
290,1437501413806,-9.698,-40.824,-28.041
291,1437501413826,-9.698,-40.824,-28.695
292,1437501413850,-9.698,-40.382,-28.695
293,1437501413868,-9.698,-40.382,-28.695
294,1437501413889,-9.698,-40.382,-28.381
295,1437501413910,-9.698,-40.382,-28.381
296,1437501413927,-9.698,-40.382,-28.381
297,1437501413948,-9.698,-40.382,-28.381
298,1437501413970,-9.698,-40.382,-28.761
299,1437501413990,-9.385,-39.918,-29.209
300,1437501414009,-9.385,-38.742,-30.22
301,1437501414029,-8.943,-37.739,-30.842
302,1437501414049,-7.841,-36.216,-32.272
303,1437501414071,-6.547,-35.469,-33.02
304,1437501414091,-5.513,-34.384,-33.996
305,1437501414111,-5.513,-33.731,-34.448
306,1437501414130,-4.65,-32.745,-35.044
307,1437501414149,-4.089,-32.13,-35.044
308,1437501414174,-3.34,-31.253,-36.021
309,1437501414191,-2.928,-30.761,-36.763
310,1437501414221,-2.0,-30.285,-36.763
311,1437501414288,-1.219,-30.285,-36.215
312,1437501414289,-0.566,-29.568,-36.988
313,1437501414290,-0.019,-29.568,-36.988
314,1437501414291,-0.019,-29.568,-36.988
315,1437501414308,-0.019,-29.568,-36.988
316,1437501414336,0.309,-30.049,-36.988
317,1437501414350,-0.08,-30.049,-36.988
318,1437501414369,-0.769,-30.68,-36.25
319,1437501414389,-0.769,-31.631,-36.25
320,1437501414408,-1.64,-31.631,-36.25
321,1437501414428,-2.149,-31.631,-36.25
322,1437501414448,-2.149,-32.092,-36.25
323,1437501414470,-2.677,-32.64,-36.25
324,1437501414491,-3.002,-33.23,-36.25
325,1437501414511,-3.512,-34.376,-35.575
326,1437501414531,-4.508,-35.578,-34.204
327,1437501414550,-5.146,-36.18,-33.479
328,1437501414571,-5.56,-36.18,-32.954
329,1437501414591,-5.56,-36.509,-32.954
330,1437501414611,-4.493,-35.859,-33.412
331,1437501414631,-3.718,-35.859,-33.412
332,1437501414648,-3.102,-35.859,-33.412
333,1437501414669,-2.49,-35.113,-33.412
334,1437501414691,-2.026,-35.113,-33.99
335,1437501414711,-2.026,-34.73,-33.99
336,1437501414730,-2.026,-34.268,-34.309
337,1437501414749,-2.026,-34.268,-34.309
338,1437501414771,-2.026,-33.813,-34.309
339,1437501414793,-2.026,-34.17,-34.309
340,1437501414814,-2.026,-34.17,-34.309
341,1437501414834,-2.026,-33.555,-34.309
342,1437501414852,-1.361,-32.283,-34.931
343,1437501414869,0.019,-31.124,-35.987
344,1437501414889,1.629,-29.293,-37.2
345,1437501414908,4.254,-27.752,-39.05
346,1437501414930,5.972,-26.15,-39.836
347,1437501414948,7.633,-24.958,-40.328
348,1437501415018,8.708,-23.744,-40.328
349,1437501415019,9.257,-22.471,-40.328
350,1437501415020,9.747,-22.471,-40.328
351,1437501415028,10.691,-21.557,-41.542
352,1437501415055,11.076,-21.113,-41.542
353,1437501415070,11.518,-21.113,-41.149
354,1437501415089,11.518,-21.487,-41.149
355,1437501415111,11.001,-21.966,-41.149
356,1437501415133,11.001,-21.966,-41.149
357,1437501415151,10.639,-22.892,-40.394
358,1437501415182,9.973,-23.365,-40.394
359,1437501415191,9.202,-24.0,-40.394
360,1437501415210,8.36,-24.778,-40.394
361,1437501415229,7.2,-26.065,-40.394
362,1437501415252,6.106,-27.194,-40.698
363,1437501415272,4.838,-28.422,-40.698
364,1437501415292,3.381,-29.55,-40.698
365,1437501415312,1.683,-31.143,-39.566
366,1437501415347,-0.433,-32.603,-37.904
367,1437501415348,-2.142,-33.912,-36.357
368,1437501415370,-3.497,-35.076,-34.828
369,1437501415388,-4.122,-35.784,-33.99
370,1437501415409,-4.492,-35.784,-33.174
371,1437501415429,-4.492,-36.306,-33.174
372,1437501415448,-3.546,-36.306,-33.639
373,1437501415468,-3.169,-36.306,-33.328
374,1437501415489,-2.793,-36.306,-33.328
375,1437501415512,-2.413,-35.639,-33.743
376,1437501415529,-1.947,-35.04,-34.988
377,1437501415549,-1.947,-34.375,-35.832
378,1437501415569,-1.341,-33.384,-35.299
379,1437501415595,-0.822,-33.384,-35.848
380,1437501415615,-0.822,-32.617,-35.848
381,1437501415636,-0.822,-32.617,-35.848
382,1437501415649,-1.162,-32.26,-35.848
383,1437501415676,-1.162,-31.172,-36.209
384,1437501415750,-0.05,-29.692,-37.232
385,1437501415751,1.684,-27.54,-38.073
386,1437501415752,4.237,-25.88,-38.859
387,1437501415753,6.698,-24.694,-39.241
388,1437501415770,9.362,-23.188,-39.814
389,1437501415791,11.085,-22.334,-39.814
390,1437501415809,12.152,-21.337,-39.814
391,1437501415834,12.559,-21.337,-40.38
392,1437501415850,13.522,-20.678,-40.38
393,1437501415869,13.522,-20.678,-41.026
394,1437501415890,13.127,-21.008,-40.678
395,1437501415910,13.127,-21.008,-40.678
396,1437501415933,12.583,-21.008,-40.678
397,1437501415950,12.583,-22.032,-40.678
398,1437501415972,11.415,-22.621,-40.678
399,1437501415992,10.737,-22.994,-40.678
400,1437501416012,10.177,-23.452,-40.182
401,1437501416033,9.309,-24.018,-40.533
402,1437501416052,7.749,-25.323,-40.533
403,1437501416072,6.399,-26.162,-40.533
404,1437501416092,5.279,-27.044,-40.533
405,1437501416112,3.912,-28.48,-40.533
406,1437501416133,2.02,-30.249,-40.533
407,1437501416149,-0.148,-31.935,-39.079
408,1437501416174,-1.823,-33.264,-37.203
409,1437501416189,-3.153,-34.436,-35.601
410,1437501416211,-4.15,-35.06,-35.105
411,1437501416230,-5.007,-35.469,-34.259
412,1437501416252,-4.463,-35.469,-34.259
413,1437501416272,-4.463,-35.469,-34.259
414,1437501416293,-3.948,-35.469,-33.586
415,1437501416313,-3.948,-35.469,-34.141
416,1437501416332,-3.474,-34.785,-34.573
417,1437501416351,-3.474,-34.132,-34.979
418,1437501416371,-2.323,-33.703,-35.961
419,1437501416391,-1.547,-32.772,-36.288
420,1437501416454,-0.805,-32.156,-36.595
421,1437501416455,-0.201,-31.369,-36.95
422,1437501416456,0.411,-30.686,-36.95
423,1437501416476,1.107,-30.091,-37.461
424,1437501416490,2.081,-28.81,-38.334
425,1437501416510,4.312,-27.053,-40.025
426,1437501416532,5.963,-25.494,-40.545
427,1437501416550,8.209,-23.66,-40.917
428,1437501416571,9.446,-22.395,-40.417
429,1437501416590,11.277,-20.936,-41.236
430,1437501416612,12.707,-19.828,-40.85
431,1437501416633,14.17,-19.004,-41.613
432,1437501416650,14.555,-18.65,-41.224
433,1437501416671,14.555,-18.65,-41.224
434,1437501416693,14.059,-18.65,-41.224
435,1437501416713,13.395,-19.004,-40.521
436,1437501416733,12.8,-19.68,-40.521
437,1437501416753,12.29,-20.347,-40.521
438,1437501416773,11.982,-21.107,-40.521
439,1437501416793,11.32,-21.598,-40.521
440,1437501416813,10.545,-22.233,-40.521
441,1437501416833,9.06,-23.042,-40.861
442,1437501416853,8.46,-23.912,-40.861
443,1437501416872,7.591,-24.88,-40.861
444,1437501416893,6.472,-26.281,-40.861
445,1437501416911,5.055,-27.818,-40.861
446,1437501416930,3.161,-29.722,-40.213
447,1437501416950,1.097,-31.095,-38.751
448,1437501416975,-0.968,-32.803,-36.979
449,1437501416996,-2.803,-34.083,-35.473
450,1437501417016,-4.01,-35.111,-34.175
451,1437501417033,-4.861,-35.111,-33.1
452,1437501417050,-4.861,-35.659,-33.792
453,1437501417071,-4.861,-35.659,-32.995
454,1437501417091,-4.217,-35.296,-33.569
455,1437501417112,-3.733,-35.296,-33.267
456,1437501417139,-2.967,-34.794,-33.267
457,1437501417293,-2.49,-34.294,-34.336
458,1437501417294,-1.809,-33.802,-34.336
459,1437501417295,-1.145,-33.12,-35.304
460,1437501417296,-0.202,-32.093,-35.966
461,1437501417297,0.518,-31.243,-35.966
462,1437501417298,0.898,-30.842,-36.337
463,1437501417299,0.898,-30.212,-36.892
464,1437501417300,1.96,-29.234,-37.492
465,1437501417311,3.436,-27.478,-38.276
466,1437501417338,5.862,-25.511,-39.051
467,1437501417351,8.705,-22.946,-39.71
468,1437501417371,10.748,-21.791,-39.216
469,1437501417392,12.818,-20.211,-39.785
470,1437501417412,14.672,-18.792,-39.341
471,1437501417432,15.193,-17.82,-39.341
472,1437501417451,15.843,-17.431,-39.994
473,1437501417472,15.843,-17.007,-39.994
474,1437501417494,15.843,-17.007,-39.994
475,1437501417514,15.171,-17.463,-39.501
476,1437501417534,14.862,-18.124,-39.501
477,1437501417553,14.161,-18.806,-39.881
478,1437501417574,14.161,-18.806,-39.881
479,1437501417594,12.979,-19.879,-39.881
480,1437501417614,12.193,-20.542,-39.881
481,1437501417634,11.34,-21.195,-39.881
482,1437501417652,10.034,-22.262,-39.881
483,1437501417673,8.9,-23.135,-39.881
484,1437501417694,7.46,-24.368,-39.881
485,1437501417714,5.95,-25.891,-39.881
486,1437501417732,3.919,-27.253,-39.881
487,1437501417751,2.024,-29.083,-39.881
488,1437501417771,-0.323,-30.834,-39.381
489,1437501417793,-1.786,-32.203,-37.554
490,1437501417816,-3.489,-33.451,-36.293
491,1437501417838,-4.866,-34.371,-35.218
492,1437501417853,-4.866,-34.93,-34.703
493,1437501417871,-5.267,-34.93,-34.028
494,1437501417892,-4.815,-34.93,-34.028
