id,attr_time,attr_db
1,1438331472544,32.0889453760887
2,1438331473286,41.267856727697
3,1438331474044,33.3176852088607
4,1438331474797,31.6007127666106
5,1438331475546,20.8138753420158
6,1438331476293,25.8846798345999
7,1438331477031,34.7408424162349
8,1438331477769,30.5626506795646
9,1438331478521,33.0570161405477
10,1438331479260,38.9230047938657
11,1438331479982,29.1644905220638
12,1438331480745,63.8195789982555
13,1438331481500,43.8532075647872
14,1438331482216,45.2931514442552
15,1438331482958,37.8407799946229
16,1438331483672,41.2867852556479
17,1438331484446,39.937816929398
18,1438331485164,38.6353745791865
19,1438331485855,50.088996012069
20,1438331486541,51.041167986407
21,1438331487292,42.9644443254895
22,1438331488036,32.4745306777596
23,1438331488789,37.9760089142718
24,1438331489441,41.2997219750366
25,1438331490173,47.9371457259724
26,1438331490914,38.5990120885258
27,1438331491655,53.634406520655
28,1438331492441,46.1706775221583
29,1438331493206,48.6337832759379
30,1438331493944,41.9384774892365
31,1438331494677,45.4338762143623
32,1438331495455,45.4087984161178
33,1438331496214,50.0472710079217
34,1438331496989,35.9272088831793
35,1438331497782,51.1469442842864
36,1438331498469,39.907765705554
37,1438331499203,36.6675889418481
38,1438331499956,29.9222757910692
39,1438331500739,45.8398162932768
40,1438331501597,25.9932644390059
41,1438331502338,36.2188522892052
42,1438331503061,54.8254202220895
43,1438331503797,50.9226334682286
44,1438331504555,22.1205245540644
45,1438331505227,37.3344555199749
46,1438331505855,43.8185366814048
47,1438331506516,36.3888062892436
48,1438331507257,46.2519507453071
49,1438331507997,34.8438756327875
50,1438331508716,57.0525690107362
51,1438331509470,25.910032893598
52,1438331510194,19.5813153175593
53,1438331511001,17.6620954024488
54,1438331511749,27.1188139074347
55,1438331512527,31.9126157811861
56,1438331513236,34.7891715151519
57,1438331513915,37.5679931154908
58,1438331514615,30.6555692712155
59,1438331515256,36.2941960036926
60,1438331515964,24.6487864723101
61,1438331516697,61.5487896788077
62,1438331517483,48.0966009960584
63,1438331518211,43.6411933859104
64,1438331518971,40.7377719550536
65,1438331519701,52.3653737759706
66,1438331520480,52.2403435568858
67,1438331521280,33.0975020883253
68,1438331522011,24.3626796782261
69,1438331522733,21.1716486833365
70,1438331523500,25.6247362447439
71,1438331524221,12.256225892415
72,1438331524920,30.4367866840675
73,1438331525556,10.530612483224
74,1438331526343,20.4435258814231
75,1438331527014,7.79229813692552
76,1438331527748,19.6910866795277
77,1438331528528,9.43427391391207
78,1438331529230,7.46128462426317
79,1438331529840,10.0349568556879
80,1438331530534,6.76964638627703
81,1438331531236,21.0174396560759
82,1438331531908,43.5623696050194
83,1438331532642,39.1510155650263
84,1438331533417,4.90721337324787
85,1438331534142,16.1481670605152
86,1438331534878,11.1902710326662
87,1438331535629,11.5667108587627
88,1438331536482,13.2063017718048
89,1438331537223,16.0739777111433
90,1438331537969,6.99130256341073
91,1438331538692,7.72955766780079
92,1438331539463,6.71612627612708
93,1438331540201,27.7496969595776
94,1438331540982,4.55263803403923
95,1438331541689,2.4395481815645
96,1438331542484,4.29385356114893
97,1438331543222,10.1328916374755
98,1438331543943,17.5869856151894
99,1438331544723,6.0444622099822
100,1438331545478,8.03434356120089
101,1438331546165,19.3723679360234
102,1438331546882,12.4950678612014
103,1438331547587,16.5995279293497
104,1438331548335,22.3789897687575
105,1438331549080,32.8843694871476
106,1438331549789,37.1480970528608
107,1438331550439,39.9069370428158
108,1438331551191,37.9869986361424
109,1438331551889,30.3173368713652
110,1438331552592,27.1590814616816
111,1438331553385,24.1537344302902
112,1438331554090,30.382240775312
113,1438331554844,26.2175908451535
114,1438331555566,34.9096468806876
115,1438331556260,31.5699011831623
116,1438331556939,16.6178113507543
117,1438331557667,43.4717457459507
118,1438331558442,41.0563338739407
119,1438331559180,38.8240678228054
120,1438331559926,40.7600779715206
121,1438331560661,35.5594298952655
122,1438331561447,40.5827667164502
123,1438331562190,33.7304046731909
124,1438331562925,38.2854840407259
125,1438331563676,40.849561981133
126,1438331564446,37.3763555946211
127,1438331565222,36.8443745644682
128,1438331565910,66.3029502073788
129,1438331567865,30.5195034425517
130,1438331568526,21.6808856472259
131,1438331569269,67.2051213829999
132,1438331570060,40.9646640069341
133,1438331570818,22.2750490137479
134,1438331571571,27.1618920297564
135,1438331572273,21.5838105264964
136,1438331573762,22.9636711407444
137,1438331574408,18.7342236847572
138,1438331575135,35.1030755690565
139,1438331575873,44.4005256585042
140,1438331576605,29.2409485176631
141,1438331577368,34.1145938060888
142,1438331578097,32.4100040567392
143,1438331578829,26.8473559517277
144,1438331579528,34.0168227743059
145,1438331581113,27.5795215219067
146,1438331581859,39.7869410000692
147,1438331582595,21.9805722451329
148,1438331583346,7.31354928502144
149,1438331584036,18.4058752069634
150,1438331585676,28.9151153129266
151,1438331586328,35.7908637331932
152,1438331587060,22.7384073245608
153,1438331587809,33.1014327812588
154,1438331588546,38.720864244255
155,1438331589296,28.4350415389976
156,1438331590011,30.3155380785159
157,1438331590813,7.87713783570192
158,1438331591465,9.64019752290476
159,1438331592192,42.5230041875658
160,1438331592942,31.3708364651612
161,1438331593680,7.57899135528792
162,1438331594448,9.77834781175582
163,1438331595199,9.20207247157501
164,1438331595921,36.8334919823413
165,1438331596602,38.8779917066574
166,1438331597348,35.5371558612207
167,1438331598103,14.832825739115
168,1438331598913,38.3621199050358
169,1438331599494,39.2284242415463
170,1438331600062,37.0240749942481
171,1438331600606,25.8600729389302
172,1438331601185,40.0708583752798
173,1438331601776,35.3531572576329
174,1438331602448,19.8338305153778
175,1438331603205,14.5294016330425
176,1438331603780,10.4592099764726
177,1438331604329,14.3051507007667
178,1438331604882,9.09737889153575
179,1438331605433,7.94668639108386
180,1438331606019,6.39856159699268
181,1438331607525,10.7428422968803
182,1438331608258,22.3522693361628
183,1438331609001,25.5516572000448
184,1438331609699,25.0127612872813
185,1438331610302,19.3789900937954
186,1438331610868,14.3744611526614
187,1438331611427,15.5397108502784
188,1438331612003,18.5491900491441
189,1438331612614,13.7251850912953
190,1438331613270,12.7923336810264
191,1438331613964,11.0995391862702
192,1438331614714,11.9339767777313
193,1438331615287,9.10914307794548
194,1438331615843,29.114373839254
195,1438331616412,18.6529979247097
196,1438331616959,16.8909367860532
197,1438331618260,13.2574718798108
198,1438331618984,14.6465348941469
199,1438331619738,32.9404590297225
200,1438331620481,46.0631565234305
201,1438331621116,25.9181144802807
202,1438331621702,28.5123935671132
203,1438331622283,36.3329893861465
204,1438331622862,3.9220353858761
205,1438331623440,31.3105726417587
206,1438331624018,32.8756942329656
207,1438331624745,31.9920838415612
208,1438331625440,39.9401275559423
209,1438331626007,37.6670769837095
210,1438331626565,17.0935998088388
211,1438331627141,45.4290823871118
212,1438331627714,40.160390263826
213,1438331629547,12.8425042534733
214,1438331630160,42.2496678885337
215,1438331630968,28.7239391851531
216,1438331631710,34.7102305179198
217,1438331632479,39.2770769342273
218,1438331633218,30.7287755635603
219,1438331633951,38.9634732479528
220,1438331634705,38.5088114658524
221,1438331635470,37.3137312169922
222,1438331636199,39.2739648412976
223,1438331636940,29.5717949588839
224,1438331637675,32.9653379586079
225,1438331638436,28.9447751162635
226,1438331639144,12.2913110949166
227,1438331639799,47.2922322399133
228,1438331640577,44.7516069036932
229,1438331641345,22.5340640450484
230,1438331642078,35.1509156023299
231,1438331642822,8.06565846058435
232,1438331643587,27.8420182830164
233,1438331644328,38.4091698820101
234,1438331645089,29.5101467493083
235,1438331645806,14.5901677665904
236,1438331646407,37.121787622285
237,1438331647124,42.4764061645094
238,1438331647860,38.0019024148775
239,1438331648597,3.56600646292412
240,1438331649364,2.76355542146995
241,1438331650125,10.8666055316931
242,1438331650823,39.1012622212164
243,1438331651557,34.4441623386156
244,1438331652290,37.5184267227844
245,1438331653025,46.3536427047567
246,1438331653770,26.1075182580132
247,1438331654535,41.7934203404727
248,1438331655288,8.14998003267292
249,1438331656099,35.653599531789
250,1438331656851,44.215210728895
251,1438331657603,23.4745568290294
252,1438331658386,20.7966938449519
253,1438331659053,29.0448113410359
254,1438331659812,31.3112980983304
255,1438331660597,21.4376844025281
256,1438331661378,30.7285784149597
257,1438331662076,38.9918049422386
258,1438331662829,26.2940286504746
259,1438331663576,37.8746448235886
260,1438331664335,38.0756527359979
261,1438331665053,8.05474495551984
262,1438331665828,11.5556639928353
263,1438331666534,32.1829684169733
264,1438331667273,44.9949040468997
265,1438331667986,29.1953445645618
266,1438331668673,11.6811252411769
267,1438331669443,16.3393937885591
268,1438331670168,42.3607997837874
269,1438331670834,35.890893075483
270,1438331671595,21.8629584322372
271,1438331672366,47.5535083373957
272,1438331673166,33.4298433763575
273,1438331673892,29.3613578367636
274,1438331674645,62.2364880692293
275,1438331675437,50.6685792091726
276,1438331676166,14.6352242193892
277,1438331676892,47.1186983393093
278,1438331677636,37.6847220642856
279,1438331678413,37.4878185626385
280,1438331679141,26.6497688163728
281,1438331679885,40.1672243644892
282,1438331680627,37.5927436024689
283,1438331681389,24.2197558760907
284,1438331682129,25.534321283814
285,1438331682866,19.575709265471
286,1438331683600,20.2754476031982
287,1438331684347,10.8615648865679
288,1438331685041,17.8829976451369
289,1438331685821,41.1934221813891
290,1438331686556,43.1872741188111
291,1438331687309,11.5475149128322
292,1438331688025,36.0766623227452
293,1438331688754,38.610324594566
294,1438331689525,16.2407662527985
295,1438331690356,28.9561217938863
296,1438331691009,7.9834333728823
297,1438331691736,15.9538185828517
298,1438331692505,37.3625968464593
299,1438331693243,37.3427127781925
300,1438331693989,29.1576342396485
301,1438331694753,36.2574471342977
302,1438331695538,28.5234193553676
303,1438331696347,12.938483011275
304,1438331697031,20.8292295077583
305,1438331697782,5.78627427085626
306,1438331698532,8.39467097226229
307,1438331699261,11.4616207430871
308,1438331700012,13.2853690104022
309,1438331700765,12.175363172684
310,1438331701610,16.607706440326
311,1438331702376,15.7600733782756
312,1438331703111,27.6831732710854
313,1438331703853,20.603344965811
314,1438331704594,23.6782135326459
315,1438331705318,8.97200846978416
316,1438331706088,7.39393273965065
317,1438331706854,7.12502244097259
318,1438331707483,5.62935777816981
319,1438331708218,5.97826902220671
320,1438331708944,22.4745009670107
321,1438331709703,5.85234939451305
322,1438331710481,28.4655621630489
323,1438331711210,11.418098970041
324,1438331711832,15.5849886205492
325,1438331712542,13.8266549653072
326,1438331713295,11.2721689272976
327,1438331714037,9.44915843632593
328,1438331714778,9.90830737533077
329,1438331715527,12.5676404317289
330,1438331716226,15.6867156743908
331,1438331716903,16.3377242798741
332,1438331717634,17.3739734411728
333,1438331718394,8.66025073719261
334,1438331719128,6.96114763073438
335,1438331719847,12.0046828377421
336,1438331720582,8.62921018634332
337,1438331721345,33.7191943342464
338,1438331722083,0.657970651804447
339,1438331722855,16.6378105941354
340,1438331723607,0.957513771197503
341,1438331724364,6.80215923145825
342,1438331725091,1.1931706573692
343,1438331725766,2.07560521469752
344,1438331726396,4.29772035352316
345,1438331727115,7.66881693329115
346,1438331727682,18.195427399409
347,1438331728353,5.14431325721007
348,1438331729037,8.37764839011473
349,1438331729675,7.65492357440971
350,1438331730374,10.6079584051624
351,1438331731110,12.0575235194174
352,1438331731825,1.58299921260493
353,1438331732495,4.91590770222458
354,1438331733322,4.59257322916074
355,1438331733981,15.1875039440731
356,1438331734647,8.32525290336525
357,1438331735326,11.6033698030301
358,1438331736001,11.4008876629858
359,1438331736757,13.3805089205022
360,1438331737534,16.4509318760628
361,1438331738228,7.54676649365008
362,1438331738895,9.04423133981173
363,1438331739627,5.9006263440296
364,1438331740427,6.97277130878087
365,1438331741158,3.27687262632356
366,1438331741894,13.4066016898964
367,1438331742622,5.18129640320361
368,1438331743388,10.174961204925
369,1438331744130,11.4987435149162
370,1438331744872,9.96161801589705
371,1438331745668,11.6247805636664
372,1438331746451,14.9800239464033
373,1438331747195,11.3946492681426
374,1438331747883,12.5729291393669
375,1438331748569,8.56852515468505
376,1438331749294,5.17503404558694
377,1438331750059,4.02027701841251
378,1438331750891,5.49840629901233
379,1438331751640,7.60652407076283
380,1438331752318,6.72921729539197
381,1438331753059,6.41522310757057
382,1438331753814,17.6937374009964
383,1438331754550,8.28647329114726
384,1438331755248,22.3011174391321
385,1438331755886,21.6698661653072
386,1438331756617,23.5050857645055
387,1438331757420,22.6104725194664
388,1438331758139,25.3831385077133
389,1438331758878,22.5094171832364
390,1438331759642,18.6108026307321
391,1438331760381,28.6783075942889
392,1438331761142,28.243417122177
393,1438331761871,20.4776648665602
394,1438331762635,32.2915657208889
395,1438331763392,25.6319369898207
396,1438331764106,21.7215721843354
397,1438331764845,39.491241170206
398,1438331765590,38.8326627778894
399,1438331766321,30.8064865925924
400,1438331767062,24.0147208257729
401,1438331767773,39.9337017908545
402,1438331768357,35.3689757739528
403,1438331769055,27.4481005814149
404,1438331769797,40.7067503361652
405,1438331770509,39.7351412855186
406,1438331772231,35.303534642302
407,1438331772881,29.6409631524372
408,1438331773607,34.7307470250863
409,1438331774353,40.958080816418
410,1438331775107,57.0843378251392
411,1438331775907,37.6792552943102
412,1438331776648,46.5336529658149
413,1438331777391,46.678481584803
414,1438331778109,55.2029212140062
415,1438331778843,40.1087238902408
416,1438331779565,38.6833072667549
417,1438331780298,40.4279162796614
418,1438331782005,50.5506361916274
419,1438331782697,31.3842274191884
420,1438331783464,52.798525048359
421,1438331784215,39.8586536900244
422,1438331784929,40.3977747906561
423,1438331785650,34.9124778433196
424,1438331786426,37.8293135858489
425,1438331787166,38.452120870282
426,1438331787870,34.4541560157942
427,1438331788539,38.2972094784055
428,1438331789301,23.9915702777514
429,1438331790051,42.8948553728181
430,1438331790813,38.8929429351193
431,1438331791529,28.5978056994957
432,1438331792238,43.0327148069728
433,1438331792864,22.7185264996889
434,1438331793584,16.5938378605985
435,1438331794337,15.3960600076611
436,1438331795072,17.7301086311856
437,1438331795746,12.3535230922871
438,1438331797283,31.800372439288
439,1438331797923,16.8003743880807
440,1438331798651,50.8372417851244
441,1438331799458,63.9284313700596
442,1438331800199,42.2649187400251
443,1438331800932,34.3949510149138
444,1438331801683,23.4888991935557
445,1438331802437,38.4674809911524
446,1438331803174,41.3038472564586
447,1438331803920,30.1521718113739
448,1438331805811,45.065484540219
449,1438331806487,34.2874770114122
450,1438331807223,34.0302720658719
451,1438331807971,43.7806943473743
452,1438331808693,43.2006996732388
453,1438331809468,43.2783903217479
454,1438331810220,26.5477009696376
455,1438331810961,9.71430768278192
456,1438331811688,10.6145735051362
457,1438331812403,45.1804091660635
458,1438331813044,39.4763033095526
459,1438331813696,38.8872527852161
460,1438331814473,41.263437124585
461,1438331815191,38.4251713378676
462,1438331815867,26.4579773637957
463,1438331816598,13.645426265934
464,1438331817367,35.3472027694282
465,1438331818148,50.7027875158131
466,1438331818877,33.0496694596379
467,1438331819605,51.2557544592487
468,1438331820331,43.34990382777
469,1438331821075,19.3417591370722
470,1438331821833,33.4855966680747
471,1438331822572,37.3656164866172
472,1438331823336,33.0635107365307
473,1438331824081,36.3621919408472
474,1438331824830,38.7108827596972
475,1438331825651,37.1054107482411
476,1438331826363,26.6494772705727
477,1438331827056,32.7801424708979
478,1438331827801,40.5175532120592
479,1438331828521,39.77536599799
480,1438331829142,40.2868006524399
481,1438331829839,42.3506487091118
482,1438331830576,46.194965307613
483,1438331831384,31.4682542544378
484,1438331832106,24.2305691271118
485,1438331832804,42.8747809320244
486,1438331833452,43.3782154267257
487,1438331834198,15.7120428769051
488,1438331834918,29.7712589663024
489,1438331835725,58.4054753532618
490,1438331836484,37.0992708603993
491,1438331837203,43.1575283333742
492,1438331837922,44.2690539165451
493,1438331838656,57.2341490496057
494,1438331839422,47.5054567649741
495,1438331840190,40.4414024281813
496,1438331840978,52.1501734150972
497,1438331841654,42.1936944156177
498,1438331842242,47.0721054718978
499,1438331842878,48.6120309184183
500,1438331843607,33.1116752240846
501,1438331844245,30.924101950151
502,1438331844933,31.761330430382
503,1438331845706,44.5258780629026
504,1438331846526,43.5184729451849
505,1438331847268,43.1345815871429
506,1438331848006,46.0655008713499
507,1438331848753,51.1262585150303
508,1438331849388,14.5100222492906
509,1438331850101,31.218887077025
510,1438331850913,36.2218978864717
511,1438331851637,30.9359252706785
512,1438331852381,14.656362360723
513,1438331853068,12.3363066088332
514,1438331853725,35.204734017772
515,1438331854517,41.7455495415386
516,1438331855256,39.0745519216304
517,1438331856006,35.0163517115279
518,1438331856749,39.2648197093601
519,1438331857512,12.6066694239632
520,1438331858242,19.851086295234
521,1438331858988,37.4366395913267
522,1438331859706,48.2026422245554
523,1438331860495,39.2543112663006
524,1438331861226,26.1461840179071
525,1438331861953,35.2861181516037
526,1438331862699,27.7178493580162
527,1438331863482,26.3562166661727
528,1438331864221,13.7672548046691
529,1438331864943,15.1408624914968
530,1438331865686,26.0676114449791
531,1438331866492,34.7652858710617
532,1438331867219,37.4924385434448
533,1438331867959,17.4810122909443
534,1438331868688,35.0781006224797
535,1438331869468,34.2659048019687
536,1438331870186,38.901286616309
537,1438331870894,24.4107999556057
538,1438331871638,15.3338652448861
539,1438331872470,13.2384386482569
540,1438331873035,12.5588487245764
541,1438331873591,30.3571679966512
542,1438331874168,10.2003957461977
543,1438331874757,51.3952279186524
544,1438331875340,15.9581082028274
545,1438331876001,13.1693320889485
546,1438331876721,42.1137459605139
547,1438331877354,44.5218936057134
548,1438331877931,15.0405678072212
549,1438331878476,31.9261677071664
550,1438331879032,4.28191133721098
551,1438331879580,18.2349134587504
552,1438331880990,29.8852701342313
553,1438331881743,25.1488542862074
554,1438331882522,27.9176156768478
555,1438331883259,39.0405603484979
556,1438331883931,39.0796868277362
557,1438331884504,38.7564071362678
558,1438331885074,42.4292632179749
559,1438331885645,36.6565347778907
560,1438331886238,11.2117260021923
561,1438331886887,36.239299111351
562,1438331887632,34.6314066165183
563,1438331888211,36.4202067140629
564,1438331888786,31.8259281041791
565,1438331889346,35.624825316981
566,1438331889909,40.3126026757017
567,1438331890456,37.0079108341365
568,1438331891591,50.3148002327105
569,1438331892378,41.9471230746343
570,1438331893097,25.7034169022197
571,1438331893773,32.7166669161819
572,1438331894447,45.1582532871477
573,1438331895016,25.0531077524178
574,1438331895580,41.4411408717731
575,1438331896158,33.2764600074257
