id,attr_time,attr_x,attr_y,attr_z
1,1436795630050,43.5547,-14.0793,-14.1663
2,1436795630069,43.0283,-12.8479,-14.6698
3,1436795630090,43.0283,-12.8479,-14.6698
4,1436795630109,44.7815,-14.9582,-14.3341
5,1436795630127,42.1524,-13.0249,-12.1475
6,1436795630149,42.1524,-13.0249,-12.1475
7,1436795630168,43.9056,-14.0793,-14.8392
8,1436795630190,44.606,-12.6724,-14.502
9,1436795630208,44.606,-12.6724,-14.502
10,1436795630226,43.3792,-13.5513,-12.3169
11,1436795630248,44.4305,-13.9038,-14.6698
12,1436795630267,44.4305,-13.9038,-14.6698
13,1436795630286,43.3792,-13.5513,-14.3341
14,1436795630307,43.9056,-12.6724,-14.1663
15,1436795630326,43.9056,-12.6724,-14.1663
16,1436795630346,44.606,-13.3759,-13.4933
17,1436795630366,42.6788,-15.3091,-13.6612
18,1436795630386,42.6788,-15.3091,-13.6612
19,1436795630404,43.5547,-14.7827,-13.1577
20,1436795630426,43.9056,-14.0793,-14.1663
21,1436795630443,43.9056,-14.0793,-14.1663
22,1436795630465,44.7815,-15.6616,-14.6698
23,1436795630485,43.9056,-12.3215,-13.1577
24,1436795630505,43.9056,-12.3215,-13.1577
25,1436795630525,43.9056,-14.7827,-13.1577
26,1436795630543,45.1309,-13.9038,-13.9984
27,1436795630564,45.1309,-13.9038,-13.9984
28,1436795630584,44.4305,-13.9038,-14.3341
29,1436795630604,43.0283,-13.2004,-14.3341
30,1436795630622,43.0283,-13.2004,-14.3341
31,1436795630647,43.5547,-14.0793,-13.1577
32,1436795630663,44.2551,-12.6724,-14.1663
33,1436795630683,44.2551,-12.6724,-14.1663
34,1436795630703,45.1309,-14.2548,-15.3427
35,1436795630721,44.7815,-14.2548,-14.3341
36,1436795630742,44.7815,-14.2548,-14.3341
37,1436795630761,43.3792,-14.9582,-13.9984
38,1436795630782,43.0283,-12.8479,-14.3341
39,1436795630801,43.0283,-12.8479,-14.3341
40,1436795630822,44.0796,-13.9038,-13.9984
41,1436795630841,43.3792,-13.5513,-13.6612
42,1436795630860,43.3792,-13.5513,-13.6612
43,1436795630881,43.0283,-13.2004,-15.007
44,1436795630900,44.606,-11.969,-13.1577
45,1436795630923,44.606,-11.969,-13.1577
46,1436795630940,43.7302,-14.9582,-14.6698
47,1436795630960,46.1823,-13.2004,-13.3255
48,1436795630980,46.1823,-13.2004,-13.3255
49,1436795631000,44.2551,-14.7827,-13.4933
50,1436795631022,44.4305,-13.9038,-13.6612
51,1436795631039,44.4305,-13.9038,-13.6612
52,1436795631059,44.606,-15.1337,-14.8392
53,1436795631078,44.0796,-12.4969,-14.3341
54,1436795631099,44.0796,-12.4969,-14.3341
55,1436795631121,43.5547,-12.3215,-14.8392
56,1436795631138,43.3792,-11.7935,-13.9984
57,1436795631158,43.3792,-11.7935,-13.9984
58,1436795631177,43.5547,-12.6724,-15.1749
59,1436795631198,43.9056,-12.6724,-13.4933
60,1436795631219,43.9056,-12.6724,-13.4933
61,1436795631237,43.9056,-12.6724,-15.5106
62,1436795631257,43.7302,-11.4426,-13.6612
63,1436795631277,43.7302,-11.4426,-13.6612
64,1436795631297,44.9554,-13.0249,-14.1663
65,1436795631319,43.7302,-12.4969,-14.3341
66,1436795631336,43.7302,-12.4969,-14.3341
67,1436795631356,42.8543,-14.0793,-15.1749
68,1436795631376,44.2551,-11.969,-14.1663
69,1436795631395,44.2551,-11.969,-14.1663
70,1436795631416,43.5547,-14.4302,-14.502
71,1436795631435,44.4305,-13.5513,-13.6612
72,1436795631455,44.4305,-13.5513,-13.6612
73,1436795631475,44.2551,-14.4302,-12.1475
74,1436795631493,44.606,-14.4302,-14.502
75,1436795631515,44.606,-14.4302,-14.502
76,1436795631533,43.9056,-12.6724,-14.1663
77,1436795631555,43.5547,-13.0249,-13.829
78,1436795631574,43.5547,-13.0249,-13.829
79,1436795631594,43.7302,-14.2548,-13.9984
80,1436795631613,44.2551,-13.3759,-13.829
81,1436795631633,44.2551,-13.3759,-13.829
82,1436795631655,44.0796,-14.6057,-13.9984
83,1436795631673,43.0283,-12.8479,-15.007
84,1436795631693,43.0283,-12.8479,-15.007
85,1436795631712,43.7302,-14.2548,-13.3255
86,1436795631731,43.5547,-13.0249,-14.8392
87,1436795631753,43.5547,-13.0249,-14.8392
88,1436795631772,43.3792,-14.6057,-15.3427
89,1436795631792,43.3792,-12.146,-14.3341
90,1436795631810,43.3792,-12.146,-14.3341
91,1436795631831,44.2551,-13.7268,-14.502
92,1436795631869,42.5034,-13.7268,-13.1577
93,1436795631870,42.5034,-13.7268,-13.1577
94,1436795631891,42.8543,-13.3759,-13.4933
95,1436795631911,44.0796,-12.8479,-12.9883
96,1436795631930,44.0796,-12.8479,-12.9883
97,1436795631952,43.3792,-15.3091,-14.3341
98,1436795631968,44.7815,-13.5513,-13.9984
99,1436795631989,44.7815,-13.5513,-13.9984
100,1436795632008,44.7815,-14.2548,-14.3341
101,1436795632028,43.2037,-13.3759,-14.502
102,1436795632048,43.2037,-13.3759,-14.502
103,1436795632069,43.5547,-12.3215,-14.1663
104,1436795632088,42.3279,-13.9038,-13.9984
105,1436795632109,42.3279,-13.9038,-13.9984
106,1436795632127,43.3792,-13.2004,-15.007
107,1436795632151,43.5547,-12.6724,-14.502
108,1436795632166,43.5547,-12.6724,-14.502
109,1436795632188,42.5034,-15.1337,-13.4933
110,1436795632207,42.6788,-12.8479,-13.3255
111,1436795632227,42.6788,-12.8479,-13.3255
112,1436795632249,42.5034,-13.3759,-14.1663
113,1436795632266,43.3792,-12.146,-15.6799
114,1436795632287,43.3792,-12.146,-15.6799
115,1436795632307,43.5547,-13.7268,-14.1663
116,1436795632326,42.5034,-14.4302,-15.1749
117,1436795632349,42.5034,-14.4302,-15.1749
118,1436795632366,43.9056,-15.1337,-13.1577
119,1436795632386,44.4305,-12.8479,-15.3427
120,1436795632406,44.4305,-12.8479,-15.3427
121,1436795632425,44.7815,-12.8479,-14.3341
122,1436795632444,43.5547,-14.4302,-15.1749
123,1436795632466,43.5547,-14.4302,-15.1749
124,1436795632484,43.0283,-14.2548,-14.6698
125,1436795632505,42.8543,-12.6724,-15.1749
126,1436795632524,42.8543,-12.6724,-15.1749
127,1436795632545,43.7302,-13.5513,-14.3341
128,1436795632564,43.3792,-13.5513,-15.007
129,1436795632584,43.3792,-13.5513,-15.007
130,1436795632603,43.5547,-14.4302,-14.502
131,1436795632623,44.0796,-13.5513,-14.3341
132,1436795632646,44.0796,-13.5513,-14.3341
133,1436795632663,44.9554,-13.3759,-14.1663
134,1436795632682,44.2551,-13.7268,-14.502
135,1436795632703,44.2551,-13.7268,-14.502
136,1436795632722,43.5547,-15.1337,-14.8392
137,1436795632743,45.4819,-14.2548,-13.9984
138,1436795632760,45.4819,-14.2548,-13.9984
139,1436795632779,44.2551,-14.0793,-14.502
140,1436795632799,44.4305,-11.4426,-14.3341
141,1436795632819,44.4305,-11.4426,-14.3341
142,1436795632839,42.1524,-14.0793,-13.4933
143,1436795632859,42.6788,-11.4426,-12.6526
144,1436795632879,42.6788,-11.4426,-12.6526
145,1436795632898,44.4305,-12.8479,-14.3341
146,1436795632918,41.803,-15.4846,-13.1577
147,1436795632938,41.803,-15.4846,-13.1577
148,1436795632958,43.7302,-14.9582,-13.9984
149,1436795632978,43.3792,-12.4969,-12.6526
150,1436795633000,43.3792,-12.4969,-12.6526
151,1436795633019,42.5034,-14.7827,-15.1749
152,1436795633040,44.7815,-12.4969,-14.3341
153,1436795633059,44.7815,-12.4969,-14.3341
154,1436795633079,43.7302,-12.8479,-13.9984
155,1436795633099,43.2037,-13.3759,-15.1749
156,1436795633117,43.2037,-13.3759,-15.1749
157,1436795633138,44.7815,-13.5513,-13.9984
158,1436795633158,44.2551,-12.6724,-14.1663
159,1436795633178,44.2551,-12.6724,-14.1663
160,1436795633198,43.0283,-13.9038,-13.3255
161,1436795633216,44.9554,-11.969,-13.4933
162,1436795633238,44.9554,-11.969,-13.4933
163,1436795633256,44.7815,-13.5513,-14.6698
164,1436795633276,43.7302,-13.2004,-13.9984
165,1436795633297,43.7302,-13.2004,-13.9984
166,1436795633316,43.3792,-13.9038,-13.9984
167,1436795633337,44.2551,-14.0793,-13.1577
168,1436795633356,44.2551,-14.0793,-13.1577
169,1436795633376,43.3792,-14.2548,-12.9883
170,1436795633394,43.9056,-12.6724,-15.5106
171,1436795633414,43.9056,-12.6724,-15.5106
172,1436795633436,42.8543,-14.7827,-14.1663
173,1436795633455,43.0283,-11.7935,-13.6612
174,1436795633477,43.0283,-11.7935,-13.6612
175,1436795633495,43.3792,-13.2004,-15.3427
176,1436795633514,44.2551,-11.969,-15.5106
177,1436795633533,44.2551,-11.969,-15.5106
178,1436795633554,43.7302,-13.5513,-15.6799
179,1436795633575,44.606,-12.6724,-13.4933
180,1436795633593,44.606,-12.6724,-13.4933
181,1436795633614,44.0796,-13.9038,-14.3341
182,1436795633634,43.7302,-12.8479,-15.6799
183,1436795633653,43.7302,-12.8479,-15.6799
184,1436795633675,44.606,-14.0793,-13.4933
185,1436795633693,44.9554,-13.0249,-13.4933
186,1436795633712,44.9554,-13.0249,-13.4933
187,1436795633733,44.4305,-13.9038,-14.3341
188,1436795633751,43.7302,-13.2004,-15.007
189,1436795633774,43.7302,-13.2004,-15.007
190,1436795633792,44.2551,-14.0793,-14.1663
191,1436795633811,44.606,-12.6724,-15.1749
192,1436795633831,44.606,-12.6724,-15.1749
193,1436795633849,44.4305,-14.2548,-14.6698
194,1436795633871,42.5034,-12.6724,-13.829
195,1436795633890,42.5034,-12.6724,-13.829
196,1436795633913,44.606,-13.7268,-15.1749
197,1436795633930,44.4305,-13.9038,-13.3255
198,1436795633950,44.4305,-13.9038,-13.3255
199,1436795633970,43.0283,-12.8479,-15.007
200,1436795633990,43.9056,-14.4302,-14.8392
201,1436795634012,43.9056,-14.4302,-14.8392
202,1436795634029,43.7302,-13.2004,-14.3341
203,1436795634049,43.9056,-13.0249,-16.5207
204,1436795634068,43.9056,-13.0249,-16.5207
205,1436795634089,43.7302,-13.2004,-14.3341
206,1436795634109,44.0796,-12.146,-13.3255
207,1436795634128,44.0796,-12.146,-13.3255
208,1436795634148,44.2551,-15.1337,-14.8392
209,1436795634166,42.8543,-12.6724,-13.829
210,1436795634188,42.8543,-12.6724,-13.829
211,1436795634209,42.3279,-16.0126,-15.007
212,1436795634227,42.8543,-14.0793,-16.5207
213,1436795634247,42.8543,-14.0793,-16.5207
214,1436795634267,44.2551,-14.4302,-14.502
215,1436795634287,43.3792,-14.2548,-14.6698
216,1436795634309,43.3792,-14.2548,-14.6698
217,1436795634326,42.8543,-13.3759,-16.1835
218,1436795634346,43.0283,-11.7935,-15.3427
219,1436795634366,43.0283,-11.7935,-15.3427
220,1436795634385,42.6788,-16.0126,-15.007
221,1436795634408,42.3279,-12.8479,-12.9883
222,1436795634425,42.3279,-12.8479,-12.9883
223,1436795634444,44.606,-15.1337,-13.1577
224,1436795634465,42.6788,-14.2548,-13.3255
225,1436795634484,42.6788,-14.2548,-13.3255
226,1436795634507,44.0796,-13.5513,-14.3341
227,1436795634524,43.3792,-13.5513,-13.9984
228,1436795634544,43.3792,-13.5513,-13.9984
229,1436795634564,44.606,-13.7268,-15.5106
230,1436795634584,42.6788,-14.6057,-13.9984
231,1436795634603,42.6788,-14.6057,-13.9984
232,1436795634624,43.9056,-13.3759,-14.8392
233,1436795634643,43.3792,-12.8479,-14.6698
234,1436795634663,43.3792,-12.8479,-14.6698
235,1436795634683,43.9056,-13.3759,-15.1749
236,1436795634705,43.9056,-13.0249,-14.502
237,1436795634722,43.9056,-13.0249,-14.502
238,1436795634742,42.8543,-12.3215,-14.8392
239,1436795634758,42.8543,-12.3215,-13.829
240,1436795634780,42.8543,-12.3215,-13.829
241,1436795634799,43.5547,-11.969,-14.1663
242,1436795634819,44.606,-11.969,-12.4847
243,1436795634839,44.606,-11.969,-12.4847
244,1436795634859,44.4305,-13.9038,-14.6698
245,1436795634879,43.7302,-13.2004,-13.3255
246,1436795634899,43.7302,-13.2004,-13.3255
247,1436795634918,42.5034,-13.0249,-12.1475
248,1436795634938,44.0796,-12.4969,-13.9984
249,1436795634959,44.0796,-12.4969,-13.9984
250,1436795634979,44.2551,-14.7827,-13.1577
251,1436795635000,43.2037,-12.3215,-13.829
252,1436795635020,43.2037,-12.3215,-13.829
253,1436795635039,43.3792,-14.2548,-15.3427
254,1436795635059,43.5547,-12.3215,-14.502
255,1436795635079,43.5547,-12.3215,-14.502
256,1436795635099,42.8543,-13.3759,-14.1663
257,1436795635117,43.9056,-13.0249,-14.8392
258,1436795635141,43.9056,-13.0249,-14.8392
259,1436795635157,45.6574,-13.7268,-14.1663
260,1436795635178,43.9056,-11.618,-14.502
261,1436795635198,43.9056,-11.618,-14.502
262,1436795635217,44.0796,-13.9038,-14.3341
263,1436795635240,44.0796,-12.4969,-12.9883
264,1436795635256,44.0796,-12.4969,-12.9883
265,1436795635277,44.0796,-14.2548,-15.6799
266,1436795635297,43.9056,-13.3759,-11.4746
267,1436795635316,43.9056,-13.3759,-11.4746
268,1436795635339,44.606,-15.1337,-13.829
269,1436795635356,42.3279,-13.2004,-12.6526
270,1436795635376,42.3279,-13.2004,-12.6526
271,1436795635396,44.0796,-16.3635,-12.9883
272,1436795635415,44.606,-15.1337,-12.1475
273,1436795635434,44.606,-15.1337,-12.1475
274,1436795635455,43.7302,-15.3091,-14.3341
275,1436795635474,42.8543,-14.7827,-13.829
276,1436795635495,42.8543,-14.7827,-13.829
277,1436795635514,43.2037,-14.7827,-14.1663
278,1436795635535,43.0283,-14.2548,-14.3341
279,1436795635554,43.0283,-14.2548,-14.3341
280,1436795635573,43.2037,-16.5405,-17.865
281,1436795635593,41.2766,-13.9038,-17.3615
282,1436795635613,41.2766,-13.9038,-17.3615
283,1436795635636,42.6788,-16.3635,-19.043
284,1436795635653,42.5034,-14.7827,-19.5465
285,1436795635673,42.5034,-14.7827,-19.5465
286,1436795635693,41.9785,-17.067,-17.3615
287,1436795635712,43.0283,-15.6616,-16.3528
288,1436795635733,43.0283,-15.6616,-16.3528
289,1436795635750,42.6788,-18.4738,-16.3528
290,1436795635772,43.3792,-17.067,-15.6799
291,1436795635791,43.3792,-17.067,-15.6799
292,1436795635811,43.7302,-20.9351,-15.3427
293,1436795635831,42.3279,-17.7704,-14.3341
294,1436795635851,42.3279,-17.7704,-14.3341
295,1436795635870,42.3279,-19.8791,-12.9883
296,1436795635892,43.0283,-19.1772,-11.9797
297,1436795635910,43.0283,-19.1772,-11.9797
298,1436795635929,43.0283,-19.1772,-11.644
299,1436795635950,43.2037,-18.6493,-10.8032
300,1436795635970,43.2037,-18.6493,-10.8032
301,1436795635990,43.2037,-19.7037,-9.1217
302,1436795636009,44.0796,-18.8248,-8.95233
303,1436795636030,44.0796,-18.8248,-8.95233
304,1436795636049,44.0796,-19.8791,-8.95233
305,1436795636068,43.9056,-18.6493,-9.1217
306,1436795636089,43.9056,-18.6493,-9.1217
307,1436795636107,43.7302,-19.8791,-7.94373
308,1436795636129,44.9554,-16.1881,-6.09436
309,1436795636148,44.9554,-16.1881,-6.09436
310,1436795636168,44.606,-17.5949,-6.76727
311,1436795636188,45.8328,-15.3091,-5.92651
312,1436795636206,45.8328,-15.3091,-5.92651
313,1436795636228,45.3064,-15.8371,-9.79309
314,1436795636246,45.8328,-12.4969,-11.3068
315,1436795636269,45.8328,-12.4969,-11.3068
316,1436795636287,47.0581,-10.5637,-13.1577
317,1436795636306,45.3064,-6.3446,-13.4933
318,1436795636327,45.3064,-6.3446,-13.4933
319,1436795636346,45.6574,-7.39899,-13.1577
320,1436795636368,44.9554,-2.82898,-14.8392
321,1436795636385,44.9554,-2.82898,-14.8392
322,1436795636405,46.0068,-3.17993,-15.1749
323,1436795636425,46.5332,-1.95007,-14.3341
324,1436795636444,46.5332,-1.95007,-14.3341
325,1436795636467,45.4819,-0.543213,-16.6885
326,1436795636485,45.4819,-0.895691,-16.0156
327,1436795636505,45.4819,-0.895691,-16.0156
328,1436795636523,46.0068,-2.12555,-17.865
329,1436795636544,46.5332,0.511169,-16.3528
330,1436795636565,46.5332,0.511169,-16.3528
331,1436795636583,45.1309,-1.95007,-17.6971
332,1436795636604,46.0068,-0.720215,-17.5293
333,1436795636624,46.0068,-0.720215,-17.5293
334,1436795636643,45.8328,-3.00446,-17.6971
335,1436795636665,46.5332,-2.6535,-17.6971
336,1436795636683,46.5332,-2.6535,-17.6971
337,1436795636702,46.8826,-5.81665,-17.6971
338,1436795636723,45.6574,-4.93774,-17.1936
339,1436795636741,45.6574,-4.93774,-17.1936
340,1436795636764,47.76,-6.69556,-15.5106
341,1436795636782,47.2336,-6.16913,-15.007
342,1436795636801,47.2336,-6.16913,-15.007
343,1436795636822,47.0581,-10.5637,-14.502
344,1436795636839,46.5332,-12.4969,-13.9984
345,1436795636861,46.5332,-12.4969,-13.9984
346,1436795636879,46.0068,-14.4302,-15.8478
347,1436795636900,44.9554,-14.7827,-16.5207
348,1436795636920,44.9554,-14.7827,-16.5207
349,1436795636938,42.6788,-18.1213,-14.6698
350,1436795636960,42.8543,-19.7037,-14.1663
351,1436795636980,42.8543,-19.7037,-14.1663
352,1436795636999,43.3792,-21.637,-11.644
353,1436795637019,42.6788,-21.9894,-10.2982
354,1436795637039,42.6788,-21.9894,-10.2982
355,1436795637058,42.1524,-24.2737,-7.77588
356,1436795637079,42.3279,-23.7473,-6.5979
357,1436795637098,42.3279,-23.7473,-6.5979
358,1436795637119,42.3279,-25.5051,-5.92651
359,1436795637138,40.4007,-25.6805,-4.07562
360,1436795637159,40.4007,-25.6805,-4.07562
361,1436795637178,42.6788,-25.856,-3.23486
362,1436795637197,41.6275,-21.9894,-2.89917
363,1436795637218,41.6275,-21.9894,-2.89917
364,1436795637237,42.5034,-21.814,-3.06702
365,1436795637256,43.2037,-19.3527,-4.07562
366,1436795637277,43.2037,-19.3527,-4.07562
367,1436795637296,45.3064,-19.3527,-5.42145
368,1436795637317,47.2336,-16.716,-7.27081
369,1436795637336,47.2336,-16.716,-7.27081
370,1436795637358,46.5332,-15.3091,-12.3169
371,1436795637376,45.8328,-9.68475,-12.6526
372,1436795637398,45.8328,-9.68475,-12.6526
373,1436795637415,46.8826,-6.87256,-15.007
374,1436795637434,45.6574,-1.7746,-17.865
375,1436795637455,45.6574,-1.7746,-17.865
376,1436795637473,46.0068,0.686646,-19.5465
377,1436795637495,43.9056,2.44446,-19.8837
378,1436795637513,43.9056,2.44446,-19.8837
379,1436795637534,44.4305,4.02679,-22.406
380,1436795637554,42.8543,5.96008,-21.5652
381,1436795637573,42.8543,5.96008,-21.5652
382,1436795637594,43.5547,6.31104,-22.2382
383,1436795637613,42.8543,8.06885,-21.2296
384,1436795637633,42.8543,8.06885,-21.2296
385,1436795637653,42.1524,6.31104,-23.2468
386,1436795637673,42.8543,7.36694,-24.2554
387,1436795637693,42.8543,7.36694,-24.2554
388,1436795637712,43.7302,3.67432,-21.7331
389,1436795637732,43.9056,3.85132,-20.8923
390,1436795637752,43.9056,3.85132,-20.8923
391,1436795637772,46.3577,-0.720215,-21.5652
392,1436795637793,42.1524,-1.07117,-21.2296
393,1436795637811,42.1524,-1.07117,-21.2296
394,1436795637829,45.3064,-4.93774,-20.2194
395,1436795637851,45.1309,-4.76227,-18.7057
396,1436795637871,45.1309,-4.76227,-18.7057
397,1436795637891,45.6574,-5.99365,-18.2022
398,1436795637910,46.8826,-7.57446,-18.0344
399,1436795637929,46.8826,-7.57446,-18.0344
400,1436795637950,46.5332,-10.7391,-17.6971
401,1436795637969,44.9554,-12.3215,-16.1835
402,1436795637990,44.9554,-12.3215,-16.1835
403,1436795638010,44.7815,-13.9038,-15.6799
404,1436795638029,45.3064,-14.4302,-15.8478
405,1436795638049,45.3064,-14.4302,-15.8478
406,1436795638069,43.9056,-18.6493,-14.502
407,1436795638091,45.6574,-17.2424,-13.4933
408,1436795638107,45.6574,-17.2424,-13.4933
409,1436795638128,43.5547,-22.1649,-11.8118
410,1436795638147,41.9785,-21.637,-10.9711
411,1436795638168,41.9785,-21.637,-10.9711
412,1436795638190,42.6788,-24.8016,-9.62524
413,1436795638207,41.6275,-24.4507,-8.28094
414,1436795638227,41.6275,-24.4507,-8.28094
415,1436795638246,41.1011,-24.9771,-8.44879
416,1436795638267,43.2037,-22.5159,-6.09436
417,1436795638286,43.2037,-22.5159,-6.09436
418,1436795638306,43.7302,-24.4507,-6.5979
419,1436795638326,43.2037,-21.4615,-6.43005
420,1436795638346,43.2037,-21.4615,-6.43005
421,1436795638366,43.7302,-22.3404,-6.26221
422,1436795638386,45.3064,-20.4071,-6.43005
423,1436795638406,45.3064,-20.4071,-6.43005
424,1436795638423,44.2551,-21.1105,-6.76727
425,1436795638445,45.1309,-14.9582,-4.91638
426,1436795638464,45.1309,-14.9582,-4.91638
427,1436795638487,47.76,-15.1337,-8.78449
428,1436795638505,45.6574,-11.2671,-8.11157
429,1436795638524,45.6574,-11.2671,-8.11157
430,1436795638544,47.0581,-11.2671,-12.4847
431,1436795638562,46.7087,-7.04803,-13.1577
432,1436795638583,46.7087,-7.04803,-13.1577
433,1436795638603,45.3064,-6.69556,-15.1749
434,1436795638626,46.1823,-3.00446,-16.0156
435,1436795638643,46.1823,-3.00446,-16.0156
436,1436795638663,44.2551,-2.47803,-17.865
437,1436795638683,44.0796,0.862122,-18.7057
438,1436795638703,44.0796,0.862122,-18.7057
439,1436795638725,45.1309,-1.24664,-17.0242
440,1436795638742,46.0068,1.74103,-17.5293
441,1436795638762,46.0068,1.74103,-17.5293
442,1436795638781,44.606,1.0376,-17.5293
443,1436795638802,45.3064,-0.0167847,-18.2022
444,1436795638824,45.3064,-0.0167847,-18.2022
445,1436795638840,43.7302,-2.6535,-18.7057
446,1436795638861,44.606,-1.07117,-17.5293
447,1436795638879,44.606,-1.07117,-17.5293
448,1436795638900,44.4305,-2.6535,-19.043
449,1436795638922,45.6574,-4.93774,-17.1936
450,1436795638940,45.6574,-4.93774,-17.1936
451,1436795638960,45.6574,-3.88336,-17.1936
452,1436795638978,45.3064,-6.69556,-17.5293
453,1436795639000,45.3064,-6.69556,-17.5293
454,1436795639022,46.0068,-8.10242,-16.5207
455,1436795639039,44.7815,-8.63037,-14.6698
456,1436795639059,44.7815,-8.63037,-14.6698
457,1436795639079,46.3577,-14.7827,-15.8478
458,1436795639099,43.2037,-14.7827,-14.502
459,1436795639121,43.2037,-14.7827,-14.502
