id,attr_time,attr_db
1,1436798088123,26.9603950611261
2,1436798088799,29.7374049652815
3,1436798089531,30.8071861071463
4,1436798090263,21.7826727305343
5,1436798090998,22.5012786244285
6,1436798091735,19.7331402715888
7,1436798092482,25.3239885718344
8,1436798093229,20.3587272725379
9,1436798093969,20.3722077833151
10,1436798094678,20.4909695132315
11,1436798095364,19.5726949480263
12,1436798096017,22.2297788029231
13,1436798096729,22.88989765148
14,1436798097447,23.1744882261164
15,1436798098167,17.4919561029431
16,1436798098826,18.583565384347
17,1436798099548,21.288405686139
18,1436798100283,23.5557806043521
19,1436798101010,22.9771870784369
20,1436798101728,21.3018057986714
21,1436798102443,23.4622202830485
22,1436798103193,23.0740596580238
23,1436798103924,21.9717273405057
24,1436798104657,20.8796207724888
25,1436798105362,20.1129130370546
26,1436798105953,23.5852422633883
27,1436798106639,24.0980119352973
28,1436798107374,30.9059577508901
29,1436798108079,20.1414534632788
30,1436798108778,17.8906614114135
31,1436798109497,22.9281810546718
32,1436798110230,22.3289544162475
33,1436798110921,20.3880601843218
34,1436798111584,19.2561794272786
35,1436798112314,19.0998974204993
36,1436798113041,28.9935159200011
37,1436798113772,20.8734816112216
38,1436798114511,24.9539647547525
39,1436798115225,35.0899005594778
40,1436798115943,21.6669336085512
41,1436798116632,23.9398521439801
42,1436798117352,20.8185766398607
43,1436798118086,24.1672665993888
44,1436798118781,21.5950676413236
45,1436798119543,17.3004355758928
46,1436798120269,21.1525848471655
47,1436798121014,20.9410443382782
48,1436798121717,19.6699111402819
49,1436798122448,18.6811719439305
50,1436798123190,17.2165913235192
51,1436798123937,22.5199222641526
52,1436798124678,19.2053972296077
53,1436798125397,19.170740244323
54,1436798126121,22.2721080597132
55,1436798126798,23.7536476369069
56,1436798127507,20.397060770084
57,1436798128259,25.9241022958917
58,1436798129001,22.8213389352181
59,1436798129709,26.8711057462206
60,1436798130452,26.8897323602214
61,1436798131118,25.6327179284887
62,1436798131860,52.1640945691868
63,1436798132641,32.0171851659475
64,1436798133368,39.1491316127079
65,1436798134092,57.235333103708
66,1436798134816,45.3767381020777
67,1436798135550,23.3969775808843
68,1436798136272,31.6624298000274
69,1436798136937,27.8443035072393
70,1436798137670,35.3831355657318
71,1436798138404,46.8962763504823
72,1436798139128,36.7151876967397
73,1436798139856,38.1143173706157
74,1436798140587,44.3165480893284
75,1436798141354,35.2340217804881
76,1436798141976,46.1758065586773
77,1436798142658,35.7818635566118
78,1436798143379,54.227305644885
79,1436798144137,36.1736966520048
80,1436798144872,33.231842476237
81,1436798145616,40.3251839829267
82,1436798146309,38.5378952065818
83,1436798146958,44.4641325269767
84,1436798147659,40.5726689848691
85,1436798148391,52.4892724049977
86,1436798149117,37.6020848264565
87,1436798149791,52.2233151808012
88,1436798150525,49.8838004860613
89,1436798151260,55.200288259759
90,1436798151983,46.9129931179095
91,1436798152713,57.3928349632706
92,1436798153438,44.0142041317437
93,1436798154211,38.9625895540907
94,1436798154926,34.1326040568552
95,1436798155647,44.7032226124521
96,1436798156358,35.6067896443165
97,1436798157044,49.2883468924193
98,1436798157768,26.8606381312195
99,1436798158467,42.1914160452112
100,1436798159219,49.9451482030361
101,1436798159901,20.1919781647531
102,1436798160632,54.5871158308969
103,1436798161373,34.9398037213673
104,1436798162088,33.1331376854628
105,1436798162808,26.618086610449
106,1436798163576,40.1953422728773
107,1436798164310,20.2081161725721
108,1436798165037,40.2967965295807
109,1436798165764,43.6124085125115
110,1436798166518,45.5303313881661
111,1436798167232,20.49011133277
112,1436798167830,18.8381661587605
113,1436798168482,54.7776641647052
114,1436798169257,45.1137865167923
115,1436798170017,29.2835117324469
116,1436798172112,41.3936931568921
117,1436798172873,32.274948365534
118,1436798173616,18.2099992356926
119,1436798174365,25.8001690469969
120,1436798175094,42.3805539609088
121,1436798175833,35.4112132231201
122,1436798176559,25.1750340455869
123,1436798177303,29.3814298439318
124,1436798178002,19.3505947776228
125,1436798178763,49.6358910356116
126,1436798179493,18.9580160347408
127,1436798180225,32.4730128212007
128,1436798180960,40.1998499036775
129,1436798181714,20.3253257192437
130,1436798182453,38.7538274477046
131,1436798183260,32.6397871182313
132,1436798183997,47.975866523943
133,1436798184727,43.1616619170598
134,1436798185441,19.1785140652901
135,1436798187117,29.8016543648637
136,1436798187770,40.7816367252808
137,1436798188500,34.9294269391981
138,1436798189198,53.472297916894
139,1436798189939,43.4543227728351
140,1436798190675,38.1396122720284
141,1436798191438,56.8733620919761
142,1436798192162,20.2822137321873
143,1436798192879,45.4513323938779
144,1436798193621,43.7013600341282
145,1436798194379,42.7895299860136
146,1436798195100,58.2354148206864
147,1436798195827,47.0388876141446
148,1436798196570,49.1369278593261
149,1436798197298,31.4017903380415
150,1436798197997,27.8051473534853
151,1436798198671,31.4934030095319
152,1436798199387,36.9032506267427
153,1436798200101,31.9218372561937
154,1436798200815,40.5895569749274
155,1436798201456,57.9702564671563
156,1436798202136,48.9949765835016
157,1436798202895,39.606922351755
158,1436798203623,28.9575991475584
159,1436798204374,33.899432511192
160,1436798205109,32.2872017104361
161,1436798205861,48.0246460706767
162,1436798206591,25.3402040045011
163,1436798207316,39.051814167082
164,1436798208000,49.4837901869949
165,1436798209233,48.5710464900507
166,1436798209936,38.2652412079985
167,1436798210691,27.7066108762052
168,1436798211491,41.7276157772972
169,1436798212227,34.9090551584588
170,1436798212958,54.2975113593063
171,1436798213705,30.2718070619825
172,1436798214441,47.8663904829462
173,1436798215169,34.0212723590334
174,1436798215916,33.7293208621968
175,1436798216645,46.3363467792066
176,1436798217382,39.0942472235315
177,1436798218086,42.8229004675601
178,1436798218738,55.0529814962625
179,1436798219442,50.8527573484501
180,1436798220166,35.7635057653017
181,1436798220855,38.5970382554063
182,1436798222409,40.7249670349184
183,1436798223134,55.4766062031387
184,1436798223870,54.6833316469921
185,1436798224600,23.237076554882
186,1436798225331,45.8463204436188
187,1436798226056,23.0657142632583
188,1436798226777,24.7095062430172
189,1436798227517,44.5290283589034
190,1436798228133,49.3462129793954
191,1436798228808,51.111070845289
192,1436798229521,39.6233067263855
193,1436798230197,25.7657806306899
194,1436798230913,28.2806907767158
195,1436798231603,43.5358542029068
196,1436798232195,47.7594147732594
197,1436798232852,47.6249704819315
198,1436798233598,41.6395106077691
199,1436798234345,39.5136427527754
200,1436798235078,42.5114436956962
201,1436798235779,41.6709872756092
202,1436798236511,31.2903285267714
203,1436798237228,52.3419605734581
204,1436798237971,45.1598297633757
205,1436798238746,44.464850545364
206,1436798239437,32.4585211590301
207,1436798240190,38.7360415479779
208,1436798240907,32.5776720183582
209,1436798241631,34.4367319493803
210,1436798242407,41.6281964800936
211,1436798243126,44.0262613721829
212,1436798243862,42.7532154139636
213,1436798244612,42.7343380879012
214,1436798245341,34.3358935762836
215,1436798246069,37.103942738631
216,1436798246801,49.4658555518086
217,1436798247518,48.427991142113
218,1436798248224,42.4278640077828
219,1436798248906,44.7699341293101
220,1436798249596,55.5550685817626
221,1436798250333,42.4532678734356
222,1436798251077,54.2679333677104
223,1436798251889,22.2860991598347
224,1436798252578,58.61454132927
225,1436798253300,56.9680524553125
226,1436798254042,48.2144644116984
227,1436798254772,25.3492734359689
228,1436798255478,19.3086826189757
229,1436798256190,21.9391590184162
230,1436798256940,34.6937829588092
231,1436798257652,40.2190928208797
232,1436798258327,33.809365179483
233,1436798259037,35.2494375257248
234,1436798259661,39.4643281360259
235,1436798260323,39.7644870174925
236,1436798261044,18.9562869176447
237,1436798261769,32.6934283893735
238,1436798262515,45.1449770548449
239,1436798263248,50.6684245370488
240,1436798263962,44.6832253447007
241,1436798264691,34.4872939576542
242,1436798265428,53.6754136971531
243,1436798266162,22.5217389594055
244,1436798266880,46.5351135770105
245,1436798267627,34.2147347926335
246,1436798268325,20.397902414242
247,1436798268930,29.1768641281083
248,1436798269622,28.2959134833287
249,1436798270367,47.7410128712898
250,1436798271098,16.8002341944018
251,1436798271814,36.3749595395756
252,1436798272538,52.7393828262533
253,1436798273323,24.3866311970892
254,1436798274042,40.6999636250822
255,1436798274763,24.1178502910201
256,1436798275502,23.4677289656675
257,1436798276219,46.1592372376999
258,1436798276953,42.7471259121476
259,1436798277637,18.953413118611
260,1436798278319,23.6418576824116
261,1436798279017,42.5926787214758
262,1436798279734,51.8325766865546
263,1436798280393,21.3853962169737
264,1436798281124,41.8582260548499
265,1436798281850,24.0247041008972
266,1436798282595,40.40757281092
267,1436798283296,23.7430083703472
268,1436798283892,28.5468576837087
269,1436798284575,47.1514183384523
270,1436798285307,26.9571144688844
271,1436798286047,21.383922223683
272,1436798286788,46.5522263269886
273,1436798287513,21.8170531763367
274,1436798288217,43.0569210978624
275,1436798288875,57.1803197861431
276,1436798289511,32.4426081103158
277,1436798290187,23.6066050271328
278,1436798290896,27.3798963515439
279,1436798291627,38.8516186488587
280,1436798292387,54.0025573699334
281,1436798293131,57.0848079957317
282,1436798293808,32.8272577237664
283,1436798294458,47.2057333962695
284,1436798295181,32.8647341184034
285,1436798295901,54.9008907878754
286,1436798296633,57.0958163686865
287,1436798297420,22.6149971974212
288,1436798298161,19.9145849572144
289,1436798298865,25.8302400963632
290,1436798299570,45.6154105097764
291,1436798300253,41.7682816454487
292,1436798300921,39.3945270999381
293,1436798301666,42.4034791307722
294,1436798302385,38.9216230898656
295,1436798303152,46.4409473089986
296,1436798303870,35.4378980845312
297,1436798304565,19.7568257349803
298,1436798305305,51.4757714753495
299,1436798306055,24.3284498885065
300,1436798306776,47.7201118222458
301,1436798307550,40.3369864806693
302,1436798308246,19.7897898806169
303,1436798308916,41.292053534546
304,1436798309614,46.8899012147938
305,1436798310295,43.8762775216132
306,1436798310961,38.0063524986337
307,1436798311705,26.3879236700202
308,1436798312479,35.8663271803427
309,1436798313198,17.1215875294243
310,1436798313909,43.1637790236174
311,1436798314621,42.2897252862512
312,1436798315341,33.9625844255426
313,1436798316082,33.9314926603814
314,1436798316828,28.3137474386783
315,1436798317577,32.8025051938816
316,1436798318324,48.9220998604513
317,1436798319069,39.9287932232564
318,1436798319797,36.3382781837306
319,1436798320538,22.481997557469
320,1436798321181,49.3338656096531
321,1436798321827,52.5064510193739
322,1436798322477,28.2167318399014
323,1436798323210,29.8729205058382
324,1436798323915,43.8300419881136
325,1436798324572,34.2123817040206
326,1436798325255,35.3405694190273
327,1436798325990,26.9985810550113
328,1436798326727,31.2409927835002
329,1436798327453,51.4287284441568
330,1436798328232,50.4490394831031
331,1436798328974,20.7016969055786
332,1436798329690,42.1039274066381
333,1436798330400,48.9666734229986
334,1436798331073,43.5873044958946
335,1436798331730,50.7437535472285
336,1436798332477,43.3642769604382
337,1436798333202,54.1610874848295
338,1436798333934,43.3692962172763
339,1436798334631,46.5534724705466
340,1436798335346,49.1513025672956
341,1436798336078,56.4422810965606
342,1436798336793,59.5333850691987
343,1436798337524,35.0562983607547
344,1436798338315,39.4189518296652
345,1436798339072,39.9960377657509
346,1436798339816,26.1233567273006
347,1436798340497,44.1228680573991
348,1436798341153,44.8196171774572
349,1436798341878,47.0167089515655
350,1436798342609,17.4206932430173
351,1436798343418,42.4537158227397
352,1436798344175,43.5615224174285
353,1436798344847,46.0880690994233
354,1436798345565,45.1657644121561
355,1436798346294,20.6566259827658
356,1436798347036,18.6836736411935
357,1436798347799,42.7507913735342
358,1436798348572,34.2308602036173
359,1436798349324,39.387515261465
360,1436798349986,53.2427410749561
361,1436798350703,38.5182363334662
362,1436798351389,43.0076312134146
363,1436798352085,21.649490703434
364,1436798352817,44.6736145872713
365,1436798353597,25.5463989132115
366,1436798354352,27.7074380896433
367,1436798355047,15.9897455823082
368,1436798355726,16.7256897840708
369,1436798356460,34.8888794395128
370,1436798357197,27.4469607328612
371,1436798357945,43.4487771145574
372,1436798358699,30.7136434579929
373,1436798359424,40.6118617292199
374,1436798360160,46.6429960434871
375,1436798360880,37.967488645422
376,1436798361621,56.6726513360645
377,1436798362356,47.139755084759
378,1436798363086,31.0396948581808
379,1436798363822,44.3976278949248
380,1436798364606,44.1843779120789
381,1436798365347,41.6472607107103
382,1436798366060,38.6988502610712
383,1436798366769,45.8357802395862
384,1436798367554,44.8747018561244
385,1436798368282,44.2699606920599
386,1436798368967,42.3163577545157
387,1436798369600,32.4467539472025
388,1436798370286,41.2251976928426
389,1436798371010,50.5598884357134
390,1436798371724,28.8264276803509
391,1436798372404,34.6451640682263
392,1436798373267,21.4010769589133
393,1436798373984,19.2835254165656
394,1436798375858,21.73166783106
395,1436798376535,18.1815943431844
396,1436798377284,19.762432087735
397,1436798378038,21.2029512051739
398,1436798378766,37.3159442172635
399,1436798379479,19.4894832161634
400,1436798380222,20.5733867589013
401,1436798380960,42.3231879281259
402,1436798381674,50.4245655953249
403,1436798382354,22.8879495062753
404,1436798382998,44.5833925367331
405,1436798383727,20.8549944501458
406,1436798384448,51.1201164698268
407,1436798385163,17.1407445254746
408,1436798385870,47.4387011432336
409,1436798386610,50.9945055997195
410,1436798387372,42.0551203956793
411,1436798388071,44.5794279968595
412,1436798388783,33.7562853828609
413,1436798389493,26.2968187191926
414,1436798390182,42.5943660716877
415,1436798390908,46.1303806026655
416,1436798391676,42.3131249278471
417,1436798392374,16.7654165683417
418,1436798393018,57.8955372527538
419,1436798393673,21.5641318936096
420,1436798395355,20.3589410922102
421,1436798396008,20.9442694542352
422,1436798396735,22.2797924021042
423,1436798397664,52.0704651905503
424,1436798398321,38.6637135391911
425,1436798399018,28.0199317239938
426,1436798399762,54.5222236144083
427,1436798400484,38.0589744754529
428,1436798401246,46.0351580792905
429,1436798401942,56.1530001400889
430,1436798402600,18.6002765162866
431,1436798403305,56.7414696542388
432,1436798404031,45.3316249923762
433,1436798404673,33.8271263192833
434,1436798405347,39.2036800467121
435,1436798406053,23.6560995212214
436,1436798406788,52.0996484533291
437,1436798407509,54.2696332945911
438,1436798408225,18.6226187129605
439,1436798408959,28.2563076114351
440,1436798409722,31.1162944914458
441,1436798410417,55.5879810398187
442,1436798411150,25.9092674605986
443,1436798411886,41.8435337192122
444,1436798412566,34.3649741567506
445,1436798413234,43.4629686598958
446,1436798413941,38.2379320726218
447,1436798414653,18.7572799000398
448,1436798415356,29.0346284497705
449,1436798416017,43.4780614562184
450,1436798416695,31.3452265811058
451,1436798417423,45.6557557701194
452,1436798418161,47.2273330282229
453,1436798418898,39.7904107240671
454,1436798419609,33.2798400040827
455,1436798420357,42.7452270869743
456,1436798421092,17.7209967145886
457,1436798421820,51.3787736818103
458,1436798422551,31.3310784553157
459,1436798423225,45.2555223121095
460,1436798423922,40.4649420544989
461,1436798425806,37.8138598326562
462,1436798426506,19.2992276255056
463,1436798427297,23.2893143806162
464,1436798428021,22.5509986241015
465,1436798428748,19.7221144636316
466,1436798429486,42.3593691102476
467,1436798430220,41.3609770358517
468,1436798431021,16.2901241484724
469,1436798431749,20.676237513717
470,1436798432477,41.3604462728729
471,1436798433279,25.018980610164
472,1436798433919,21.7214592520755
473,1436798434643,19.8379839414496
474,1436798435377,44.9222785903245
475,1436798436101,48.1738456842157
476,1436798436823,23.3820964157368
477,1436798437566,46.5465384927249
478,1436798438294,45.8359922370038
479,1436798439064,44.622561534907
480,1436798439871,45.4739286327934
481,1436798440585,36.3461107187554
482,1436798441275,48.6121521195185
483,1436798442641,51.2799673917858
484,1436798443253,26.3429433884675
485,1436798443931,45.2352352246913
486,1436798444656,44.9619370213271
487,1436798445372,40.7968380571739
488,1436798446062,17.3006688996274
489,1436798446668,39.3365256062279
490,1436798447393,47.1413914246802
491,1436798448129,39.3830695834403
492,1436798448816,22.2136426787865
493,1436798449551,49.2883672988283
494,1436798450295,20.3956906628923
495,1436798450982,18.2043606765894
496,1436798451565,21.2927503739033
497,1436798452214,43.905918829986
498,1436798452865,31.3826588133131
499,1436798453554,37.6490646413719
500,1436798454225,33.0150328910146
501,1436798454881,15.4616586952147
502,1436798455612,19.3571074744006
503,1436798456367,34.4136837351505
504,1436798457079,50.164918684024
505,1436798457788,23.4998239047565
506,1436798458518,45.9970857477504
507,1436798459234,19.6627442843637
508,1436798459987,44.2082801876428
509,1436798460697,42.2992641258702
510,1436798461421,18.6423823065882
511,1436798462177,45.238542042042
512,1436798462888,22.1158804012913
513,1436798463621,33.8323610294876
514,1436798464306,18.3335033442532
515,1436798464979,28.7342204784861
516,1436798465694,55.8669283705567
517,1436798466451,34.3410437280849
518,1436798467154,56.3560866545332
519,1436798467855,44.9382960069191
520,1436798468567,19.9668777418497
521,1436798469288,32.1902073044205
522,1436798470022,40.4143722613163
523,1436798470788,51.7623403890099
524,1436798471513,25.5744855722058
525,1436798472202,37.4205294163652
526,1436798472927,41.8469874273977
527,1436798473644,48.9024817441676
528,1436798474349,38.0149001188039
529,1436798475002,41.9084213372383
530,1436798475741,39.7971941792087
531,1436798476457,26.6745690932111
532,1436798477200,17.0700585131978
533,1436798477911,17.0546000143441
534,1436798478583,19.2513915065765
535,1436798479318,36.9935525739271
536,1436798480068,20.0577568963238
537,1436798480804,33.0259184332343
538,1436798481541,47.7215791027869
539,1436798482278,36.9775530784269
540,1436798482993,34.7401020257706
541,1436798483713,43.3531222546285
542,1436798484324,18.6719640105828
543,1436798485021,33.3125625340104
544,1436798485744,18.9669101146883
545,1436798486468,33.0623563253629
546,1436798487166,17.5659093529711
547,1436798487883,17.481071653172
548,1436798488639,55.5419117095489
549,1436798489453,20.2826713025045
550,1436798490188,45.109382961733
551,1436798490925,47.9348951605402
552,1436798491607,46.9724366138552
553,1436798492290,19.1911847922456
554,1436798493022,45.7039511731372
555,1436798493756,49.5050303312137
556,1436798494492,21.5159251051375
557,1436798495166,42.9629022063968
558,1436798495883,30.6894996301423
559,1436798496639,40.282824727629
560,1436798497371,42.3417400624685
561,1436798498047,16.1246388513004
562,1436798498713,32.4718242866634
563,1436798499459,36.6964664364178
564,1436798500193,19.3818572130237
565,1436798500941,21.032444044205
566,1436798501680,40.6336922823569
567,1436798502425,46.2594204958874
568,1436798503162,45.9026811557556
569,1436798503898,34.3802234594301
570,1436798504611,39.1007438120156
571,1436798505340,42.7332954369706
572,1436798506093,40.5627785080661
573,1436798506856,37.9947188493926
574,1436798507612,35.354706734201
575,1436798508435,57.6729526258371
