id,attr_time,attr_db
1,1436798088325,21.2716944083291
2,1436798089058,21.9206546899796
3,1436798089783,20.6875868435503
4,1436798091752,16.0820385514122
5,1436798092496,19.6180140185634
6,1436798093206,19.722160952469
7,1436798093988,18.9946938648931
8,1436798094749,12.9845464283493
9,1436798095522,15.5978330068171
10,1436798096172,17.199407874441
11,1436798096876,17.2781789305807
12,1436798097583,29.9044730011817
13,1436798098342,14.7384168140365
14,1436798099078,14.1676444858971
15,1436798099810,15.1590001040484
16,1436798100529,17.1969194627454
17,1436798101215,18.6017291373457
18,1436798101937,16.0140968154265
19,1436798102678,15.4620183304362
20,1436798103458,19.0896689218656
21,1436798104161,16.1444675024163
22,1436798104886,14.8123547077659
23,1436798105566,16.983793654584
24,1436798106279,17.9524472508358
25,1436798106995,14.2338545914072
26,1436798107726,36.8771437874471
27,1436798108372,32.2056359004773
28,1436798109051,13.1263947204135
29,1436798109786,20.4151072366953
30,1436798110485,17.2740592480476
31,1436798111148,16.3455394796049
32,1436798111750,15.0597053222031
33,1436798112433,13.9194623066701
34,1436798113168,13.6567885871471
35,1436798113915,18.1230926482399
36,1436798114646,16.0349514441111
37,1436798115372,15.9566921690841
38,1436798116060,18.7999316241128
39,1436798116745,21.9114509768735
40,1436798117476,15.2390142098193
41,1436798118182,17.1791191381597
42,1436798118896,16.4647079121895
43,1436798119619,20.640730187806
44,1436798120360,14.7716445286694
45,1436798121099,12.2268673174445
46,1436798121818,14.5706200573642
47,1436798122506,14.1750189868041
48,1436798123210,15.4638234540837
49,1436798123937,14.142680883386
50,1436798124674,15.0583269713974
51,1436798125385,17.5552653817984
52,1436798126116,18.5547344745099
53,1436798126850,17.7191037560796
54,1436798127581,16.2306962296592
55,1436798128305,17.2237890172822
56,1436798129106,19.4403102778094
57,1436798129846,19.324903408482
58,1436798130557,17.9628866170841
59,1436798131275,24.3574874057794
60,1436798132006,26.9335956785978
61,1436798132775,34.136848099701
62,1436798133536,36.9618499400983
63,1436798134231,19.5310899903218
64,1436798134959,44.2515742081026
65,1436798135635,33.8888045731917
66,1436798136349,21.5400874956608
67,1436798137061,34.6437352493376
68,1436798137833,38.8792783961892
69,1436798138596,20.2417585731467
70,1436798139319,31.5841727261121
71,1436798140072,32.8915335061396
72,1436798140842,42.7484426239794
73,1436798141559,22.356339100168
74,1436798142271,34.0063339233599
75,1436798142977,20.3749625849995
76,1436798143702,20.6683088142727
77,1436798144427,36.6727995481967
78,1436798145127,43.2762469776335
79,1436798145769,43.4861157358589
80,1436798146438,39.7904939707198
81,1436798147149,17.4825796886966
82,1436798147873,31.067814778331
83,1436798148651,26.4746601158565
84,1436798149372,47.2003500139816
85,1436798150115,33.9518004728435
86,1436798150867,25.9004118214066
87,1436798151537,22.1225044314333
88,1436798152256,39.2384082379564
89,1436798152965,30.5154762073488
90,1436798153647,22.6138949566647
91,1436798154388,36.4837161866616
92,1436798155119,35.0364575643532
93,1436798155859,24.2087640303834
94,1436798156576,18.0087175104844
95,1436798157238,17.4152009309843
96,1436798157917,38.3892763026794
97,1436798158662,21.8861577811203
98,1436798159376,44.8676075220499
99,1436798160127,16.0533325839341
100,1436798160893,29.1030743274308
101,1436798161644,40.4609830910983
102,1436798162370,37.7070725627291
103,1436798163024,26.450497411334
104,1436798163732,27.4801984603667
105,1436798164453,29.9433569882956
106,1436798165151,11.6260136640995
107,1436798165890,29.8529683103739
108,1436798166635,30.9763690714222
109,1436798167353,31.1966767180912
110,1436798168086,13.2371705426063
111,1436798168762,35.3268896001825
112,1436798169474,38.4002622479479
113,1436798170195,34.2551800423713
114,1436798170905,25.0860018250544
115,1436798171662,38.4077079080732
116,1436798172436,27.1218726850161
117,1436798173190,21.4765994675192
118,1436798173973,11.1023724392095
119,1436798174712,47.8669123572986
120,1436798175433,34.9041534470647
121,1436798176162,37.9745302299313
122,1436798176905,24.7913590468789
123,1436798177616,41.4371997923834
124,1436798178416,11.7783328340362
125,1436798179147,37.3948867323394
126,1436798179878,14.3101305303365
127,1436798180583,45.0363822033489
128,1436798181320,23.7492602601051
129,1436798182054,16.888009648944
130,1436798182827,20.7292012309467
131,1436798183620,38.6973362154343
132,1436798184353,19.9506474504855
133,1436798185087,44.5284667432813
134,1436798185833,15.3493679529891
135,1436798186523,13.0342799802974
136,1436798187212,44.0899238702126
137,1436798187935,40.7977957193054
138,1436798188650,33.3323316777751
139,1436798189375,40.3425020749717
140,1436798190064,39.1280329771403
141,1436798190826,16.90598606604
142,1436798191548,43.0560044195867
143,1436798192270,30.4251031830484
144,1436798192998,40.8366322436356
145,1436798193756,20.2779913864339
146,1436798194465,27.4808881800194
147,1436798195203,45.1089960106099
148,1436798195945,40.6045767995956
149,1436798196694,30.5236211687455
150,1436798197408,25.7691082592389
151,1436798198134,28.257407455538
152,1436798198850,23.7231388604913
153,1436798199560,30.7807981576142
154,1436798200278,29.4059669076045
155,1436798201000,21.3527533155039
156,1436798201700,29.1082278748057
157,1436798202402,26.52754515467
158,1436798203119,38.0175221946836
159,1436798203817,43.00732661404
160,1436798204483,48.1168586397517
161,1436798205198,41.9693633582154
162,1436798205927,42.8000536673108
163,1436798206699,37.2045702451841
164,1436798207429,24.7442936601943
165,1436798208131,39.8975480744756
166,1436798208859,40.2760332599511
167,1436798209566,46.6857847470056
168,1436798210296,37.8194928373017
169,1436798211045,24.3661995266132
170,1436798211792,52.7058036896342
171,1436798212529,40.0466040753973
172,1436798213256,37.8374798969684
173,1436798213973,47.1182358406497
174,1436798214715,27.3567998019347
175,1436798215445,44.0381453969377
176,1436798216149,24.3594871723043
177,1436798216877,49.7434135150281
178,1436798217534,33.8923096769662
179,1436798218277,47.4921702757303
180,1436798218984,43.7670312155564
181,1436798219736,21.7394122243213
182,1436798220490,17.5015871964703
183,1436798221237,38.5802520434978
184,1436798221936,40.5681607495602
185,1436798222733,21.4287514080291
186,1436798223321,31.4132928539562
187,1436798223976,25.11575484168
188,1436798224692,36.0976791291051
189,1436798225426,16.0737781066429
190,1436798226152,21.4755994336537
191,1436798226898,16.8825450321759
192,1436798227613,20.397276581905
193,1436798228286,30.4008033542716
194,1436798229023,45.7935101970037
195,1436798229771,36.0518560955961
196,1436798230493,24.6823893274492
197,1436798231204,21.4401344019425
198,1436798231924,35.4923416338544
199,1436798232608,40.7679188440586
200,1436798233328,42.2181790889841
201,1436798234063,40.4685995881344
202,1436798234828,33.3251310868089
203,1436798235545,38.5252057351298
204,1436798236273,34.9288952290586
205,1436798236992,25.6027574689181
206,1436798237776,43.515075269192
207,1436798238512,47.6683326892824
208,1436798239238,38.2152410789262
209,1436798239947,31.9158937122778
210,1436798240707,32.9270501949683
211,1436798241461,41.9610686956529
212,1436798242183,21.8810566454483
213,1436798242917,32.1079416763876
214,1436798243643,25.5765403286997
215,1436798244341,28.5930276182336
216,1436798246332,25.926200330676
217,1436798247017,42.4043730078756
218,1436798247683,52.0826541160267
219,1436798248393,56.9715716491201
220,1436798249121,36.2275056935551
221,1436798249844,54.6929986228616
222,1436798250557,27.9515010246017
223,1436798251324,44.1494256347364
224,1436798252070,18.0965367992916
225,1436798252776,18.4785796775308
226,1436798253505,20.7673216242848
227,1436798254235,23.169181951042
228,1436798254952,43.7248259647576
229,1436798255696,32.0070936965545
230,1436798256420,15.5023534446048
231,1436798257135,33.0024618839073
232,1436798257832,12.0521071506286
233,1436798258543,26.069281219369
234,1436798259269,39.0220279521376
235,1436798259973,41.9858877064595
236,1436798260724,37.4805791766986
237,1436798261498,12.8932424557255
238,1436798262225,32.961535534563
239,1436798264098,38.6893196917516
240,1436798264770,36.6910987758606
241,1436798265484,36.7724015753289
242,1436798266224,52.9953319052245
243,1436798266945,18.8791373111058
244,1436798267641,33.4937268923257
245,1436798268370,47.4560801834688
246,1436798269173,26.7048220051333
247,1436798269892,21.9057473500829
248,1436798270621,29.6759851602805
249,1436798271318,31.4763400821156
250,1436798272044,18.2865871673748
251,1436798272774,32.6739612198558
252,1436798273420,50.2204168738338
253,1436798274156,37.7339610739709
254,1436798274873,40.0080849053793
255,1436798275588,42.7468484134657
256,1436798276331,32.9179248730601
257,1436798277083,37.1813025635911
258,1436798277799,36.3393826507541
259,1436798278487,14.837711186575
260,1436798279243,41.1457598153698
261,1436798279962,44.8655208232102
262,1436798280720,25.1391301756623
263,1436798281436,21.2128084686432
264,1436798282145,14.4090993777261
265,1436798282866,40.4774751616706
266,1436798283528,38.8122075987342
267,1436798284323,17.8376436682174
268,1436798285071,41.4923684482339
269,1436798285817,32.237095841442
270,1436798286526,18.8300771572651
271,1436798287253,45.2325272493194
272,1436798288028,20.3619445964273
273,1436798288779,34.519002438162
274,1436798289507,37.3598882633483
275,1436798290235,34.3141422322103
276,1436798290960,18.8924636668205
277,1436798291674,17.8426332872185
278,1436798292326,37.9525690183012
279,1436798293104,31.9505978947175
280,1436798293769,40.4842828190087
281,1436798295155,30.6511761505905
282,1436798295866,16.661564438728
283,1436798296588,33.2255054349427
284,1436798297301,18.5399624362549
285,1436798298083,25.107448536788
286,1436798298848,10.7419012980561
287,1436798299517,43.6451029958685
288,1436798300202,38.9888861309246
289,1436798300926,30.6841248006541
290,1436798301738,43.6588860808003
291,1436798302437,34.2883055734676
292,1436798303160,18.9225430032225
293,1436798303887,35.3414855796536
294,1436798304601,40.4635792239624
295,1436798305313,59.4987305866908
296,1436798306074,34.3490109219276
297,1436798306815,26.939094009983
298,1436798307535,39.6697630173473
299,1436798308262,35.0508789859138
300,1436798308978,48.6277175526337
301,1436798309758,38.9716694234919
302,1436798310449,40.0042890008598
303,1436798311979,11.6122086670243
304,1436798312660,44.5530727705033
305,1436798313428,33.2042760907294
306,1436798314165,12.8993671067914
307,1436798314885,26.7437213072886
308,1436798315591,44.8297812714744
309,1436798316302,31.6430410000705
310,1436798316940,21.3174521026786
311,1436798317642,44.2188503335262
312,1436798318328,22.6359430823699
313,1436798319012,43.0847406165002
314,1436798319744,26.5299263357593
315,1436798320443,29.2463883311662
316,1436798321118,49.4023457411947
317,1436798321879,15.1025291493814
318,1436798322610,45.2856280494627
319,1436798323323,15.6779736611263
320,1436798324062,40.8414865743881
321,1436798324803,35.6003259536266
322,1436798325521,40.2231663468308
323,1436798326236,32.2319790414277
324,1436798326964,16.958950742345
325,1436798327723,19.216768998202
326,1436798328438,43.558867157818
327,1436798329130,24.5234319966247
328,1436798329853,44.3520228896386
329,1436798330565,48.3226442599485
330,1436798331292,31.07535714454
331,1436798332013,58.4887105915043
332,1436798332759,42.5101009697301
333,1436798333540,41.375301486637
334,1436798334194,24.8480135933501
335,1436798334911,42.9780899861347
336,1436798335664,35.042213013124
337,1436798336374,35.7554833763266
338,1436798337116,38.8403176328089
339,1436798337874,45.0348118580625
340,1436798338629,34.7568030605275
341,1436798339346,39.9918729472565
342,1436798340063,18.8239431568338
343,1436798340818,31.4740146597322
344,1436798341535,28.5060800920436
345,1436798342204,41.9742266304536
346,1436798342887,15.0147239185259
347,1436798343496,43.0713092726595
348,1436798344204,17.2772393564605
349,1436798344932,24.5593186314495
350,1436798345675,19.6936071448999
351,1436798346384,33.4524037318117
352,1436798347109,53.3624964127446
353,1436798347857,13.6712771470337
354,1436798348483,13.0951319096315
355,1436798349174,45.0059072671803
356,1436798349924,45.0889572940532
357,1436798350645,23.0967154843612
358,1436798351359,23.3695580462888
359,1436798352083,27.4541420351387
360,1436798352799,17.2505558064274
361,1436798353427,23.809879066542
362,1436798354131,18.2326299077085
363,1436798354886,11.7839354407652
364,1436798355649,20.6790410557672
365,1436798356354,37.4278540199385
366,1436798357078,46.5736111615335
367,1436798357830,44.5574507918012
368,1436798358498,22.1464864880141
369,1436798359192,8.68011671545619
370,1436798359903,12.1650900908974
371,1436798360640,45.3527459206248
372,1436798361369,20.0266923541149
373,1436798362103,50.3526095368088
374,1436798362817,57.8829911503509
375,1436798363538,23.734985573234
376,1436798364252,31.7202941183579
377,1436798364959,37.4763222590101
378,1436798365697,9.5540642623892
379,1436798366410,33.2084851696897
380,1436798367133,30.0695670269539
381,1436798367853,14.1407640106593
382,1436798368538,17.4495054024816
383,1436798369273,14.4801591142873
384,1436798369988,37.1282162266937
385,1436798370687,17.4939424297196
386,1436798371392,38.9536104252984
387,1436798372126,30.2194202416436
388,1436798372851,30.1376804257716
389,1436798373576,14.3715199901639
390,1436798374300,12.9582736482602
391,1436798375023,42.4569810452782
392,1436798375809,37.1239856242954
393,1436798376512,36.499261039937
394,1436798377183,14.7961415874968
395,1436798377896,13.5060514381817
396,1436798378607,11.5052483604683
397,1436798379322,20.2928306776367
398,1436798380070,10.8399047586178
399,1436798380827,15.9703674610677
400,1436798381550,62.3406483719445
401,1436798382263,45.0961475556798
402,1436798382986,37.7790954086233
403,1436798383792,24.7409250834265
404,1436798384502,35.98011267789
405,1436798385238,36.6708423851334
406,1436798385935,11.9097451394293
407,1436798386634,17.1783583714446
408,1436798387357,53.4914834762841
409,1436798388067,24.4595690041876
410,1436798388817,27.5452449725855
411,1436798389536,15.2820454951946
412,1436798390271,41.9186069131819
413,1436798390997,30.5092251352551
414,1436798391758,40.3244878540917
415,1436798392456,11.3244460498782
416,1436798393157,11.7266117658908
417,1436798393976,13.974847197878
418,1436798394635,12.2308228061695
419,1436798395355,12.2198086760969
420,1436798396049,12.3404025054762
421,1436798396804,32.0250343397975
422,1436798397510,39.1932668043636
423,1436798398191,19.5920140341181
424,1436798398811,45.1033752533939
425,1436798399506,26.3476879206553
426,1436798400229,43.4603198737939
427,1436798400917,37.3699489560444
428,1436798401553,42.9480429367821
429,1436798402315,40.4504931897899
430,1436798403060,12.9873467135763
431,1436798403739,44.4232241254528
432,1436798404374,23.2946752985475
433,1436798405071,48.6984705459513
434,1436798405787,35.7262650611502
435,1436798406498,12.7547698474002
436,1436798407123,49.3151729970211
437,1436798407820,33.0354087274828
438,1436798408604,17.2491584042067
439,1436798409325,25.9961649236186
440,1436798410081,13.8624169058392
441,1436798410827,46.149503520406
442,1436798411559,16.1108038764673
443,1436798412285,30.616046968816
444,1436798412983,23.0775118254668
445,1436798413724,42.3262932663571
446,1436798414439,22.6293151220281
447,1436798415146,15.6033077209134
448,1436798415867,15.5433927421579
449,1436798416583,38.5887799933186
450,1436798417317,8.60232243327255
451,1436798418059,21.865731127149
452,1436798418767,43.6570189004821
453,1436798419446,20.5786086404353
454,1436798420149,23.358229529948
455,1436798420871,49.928758716093
456,1436798421591,14.0494358672969
457,1436798422313,40.9780999421566
458,1436798423076,38.6656532921894
459,1436798423836,40.7967403378566
460,1436798424551,46.4130073220148
461,1436798425197,16.7120492734082
462,1436798425897,45.2700559626656
463,1436798426625,30.9118719952468
464,1436798427343,30.4646973245104
465,1436798428083,34.8741816174728
466,1436798428760,15.6214827852472
467,1436798429465,17.3259308039361
468,1436798430200,33.5147351061606
469,1436798430938,10.0388021939209
470,1436798431673,12.2221895084565
471,1436798432397,12.3989747623967
472,1436798433120,13.2528888249599
473,1436798433832,13.795268500491
474,1436798434483,12.2922396257639
475,1436798435145,10.6821670102359
476,1436798435826,38.2651902189879
477,1436798436531,42.2036502276159
478,1436798437241,33.0816259859868
479,1436798437983,36.8284831432502
480,1436798438723,40.5237272186096
481,1436798439450,18.8316474799309
482,1436798440178,29.506530424
483,1436798440915,20.644453373049
484,1436798441669,69.4243874543152
485,1436798442387,46.8137430616141
486,1436798443118,47.3989190177827
487,1436798443843,44.6328725617313
488,1436798444559,19.4646386655957
489,1436798445279,13.0658217386397
490,1436798445965,23.955171180197
491,1436798446637,13.2438459716367
492,1436798447367,50.0621725589196
493,1436798448100,35.924633393297
494,1436798448802,16.2376921358505
495,1436798450479,34.8877332721207
496,1436798451191,42.1242311010593
497,1436798451916,42.6124052557135
498,1436798452677,44.4934450051311
499,1436798453398,31.7371529805515
500,1436798454110,49.9011782434772
501,1436798454828,25.7181239563663
502,1436798455541,39.1126536103478
503,1436798456281,14.9466636101146
504,1436798457010,42.1077580614319
505,1436798457789,32.6802741539
506,1436798458503,16.8302844305399
507,1436798459180,53.4278278756608
508,1436798459877,47.6914893763676
509,1436798460604,47.9579560774984
510,1436798461291,13.5798458855441
511,1436798461922,9.76321365097183
512,1436798462614,43.5123330775669
513,1436798463333,22.0557204364131
514,1436798464065,30.7760002270303
515,1436798464706,19.2776999146808
516,1436798465442,25.3419117887449
517,1436798466155,51.5267282701229
518,1436798466927,26.30630008905
519,1436798467683,52.6419372986576
520,1436798468452,30.5995453631664
521,1436798469093,43.9899213801818
522,1436798469760,33.9224955670354
523,1436798470463,38.0440620425069
524,1436798472262,26.6331524111542
525,1436798472947,50.4658078215095
526,1436798473786,47.2015875202036
527,1436798474514,34.6532601843453
528,1436798475233,19.4700051740907
529,1436798475977,28.0056700820868
530,1436798476666,13.8443792970466
531,1436798477372,8.31770962450662
532,1436798478108,11.5368845176906
533,1436798478908,8.27695848712214
534,1436798479570,49.1636623449953
535,1436798480269,12.3733448434938
536,1436798480988,30.950567397303
537,1436798481737,35.152890447178
538,1436798482455,41.4955291657409
539,1436798483229,44.4170478792865
540,1436798483931,39.2867413469799
541,1436798484624,31.8967898470333
542,1436798485345,16.3227747523857
543,1436798486087,10.7474366501105
544,1436798486827,43.6446945685944
545,1436798487538,10.4065170967883
546,1436798488308,23.6588840773764
547,1436798489053,43.1707081668091
548,1436798489787,15.7882078729619
549,1436798490470,34.748758678899
550,1436798491183,34.7402224774024
551,1436798491828,44.110558454555
552,1436798492559,23.5713081771438
553,1436798493293,17.4405432035843
554,1436798494000,40.4882616834836
555,1436798494783,39.6804854803871
556,1436798495513,34.7682607663013
557,1436798496216,26.758768189353
558,1436798496933,39.4416322480045
559,1436798497660,15.8851924206241
560,1436798498367,39.6255163614056
561,1436798499106,28.4552873998821
562,1436798499823,29.8966445850617
563,1436798500523,16.2912987072951
564,1436798501230,11.7053706763373
565,1436798501935,56.7680563851148
566,1436798502672,46.7152805027263
567,1436798503395,43.1371382098441
568,1436798504124,18.8915355107881
569,1436798504862,43.5571085001535
570,1436798505584,51.93914776827
571,1436798506318,53.620550178611
572,1436798507052,52.3557669392896
573,1436798507801,33.1073215626944
574,1436798508541,32.4448495366197
575,1436798509280,28.6514988252179
