id,attr_time,attr_db
1,1436798088157,25.2920606002025
2,1436798088985,25.2389916462865
3,1436798089716,23.017528871074
4,1436798090447,22.1481426212647
5,1436798091167,19.8441672454737
6,1436798091921,24.0168725919541
7,1436798092656,24.1292747133855
8,1436798093399,23.2020143641541
9,1436798094120,20.387632733234
10,1436798094771,17.9335649700826
11,1436798095447,20.315364883948
12,1436798096119,20.1120234482635
13,1436798096812,19.948246750661
14,1436798097587,15.7215355488082
15,1436798098318,16.1928794603759
16,1436798099093,14.7275136091165
17,1436798099763,19.9479826746667
18,1436798100470,17.8642376170276
19,1436798101115,23.3382750184209
20,1436798101822,21.6399078313276
21,1436798102553,18.6199689910592
22,1436798103302,17.8410024922436
23,1436798104033,22.8328810071541
24,1436798104772,16.2347161252441
25,1436798105471,30.1089381413659
26,1436798106103,18.7072472728227
27,1436798106845,19.3783386932755
28,1436798107598,19.8306866331652
29,1436798108320,22.5080295753643
30,1436798109054,19.0221741762224
31,1436798109790,19.6099378500307
32,1436798110557,16.8834446162355
33,1436798111281,22.3487411043769
34,1436798112001,24.6134627193882
35,1436798112767,19.5436514288919
36,1436798113527,15.5007606072583
37,1436798114240,18.3293030794325
38,1436798114983,19.1338942307678
39,1436798115715,16.8054323640138
40,1436798116343,16.6704898330214
41,1436798117086,16.9994784007729
42,1436798117879,15.1803446176014
43,1436798118669,18.8521915781626
44,1436798119447,21.2666197945443
45,1436798120198,20.7545670837469
46,1436798120870,20.647281336753
47,1436798122265,18.8592639398796
48,1436798122985,19.0417269003664
49,1436798123722,23.5342163566576
50,1436798124465,14.6889577929242
51,1436798125206,16.9244539715653
52,1436798125948,15.7201165817929
53,1436798126648,16.4944312956703
54,1436798127312,17.831536601144
55,1436798128049,16.8059344942686
56,1436798128778,15.6538297030226
57,1436798129519,18.97915041908
58,1436798130225,24.8272333193423
59,1436798130992,23.0551692945744
60,1436798131724,27.5585783112957
61,1436798132479,20.5922245571861
62,1436798133212,18.8565225273212
63,1436798133931,20.1791174207443
64,1436798134691,23.2913349622493
65,1436798136121,50.3833270255637
66,1436798136828,53.6228469608557
67,1436798137546,65.5313579315041
68,1436798138284,55.2265367744651
69,1436798139015,42.5103100936914
70,1436798139767,28.6909837708322
71,1436798140514,39.5303969741751
72,1436798141250,29.4791403271796
73,1436798141956,35.1905133105604
74,1436798142629,42.2688402824336
75,1436798143338,36.9427807186085
76,1436798144075,40.8293258709314
77,1436798144881,44.559494018915
78,1436798145647,38.400119786428
79,1436798146317,49.1297008865018
80,1436798147035,39.9593660170501
81,1436798147778,59.3819259647124
82,1436798148559,34.5062340516261
83,1436798149359,54.2456960543769
84,1436798150087,38.7162396174804
85,1436798150804,45.4931875097785
86,1436798151526,36.8713573206228
87,1436798152124,33.5961759070642
88,1436798152811,40.056381173697
89,1436798153544,33.4218135980168
90,1436798154299,31.5530905433574
91,1436798155054,39.8907189700994
92,1436798155785,59.2079139804356
93,1436798156505,58.0505246377918
94,1436798157230,50.7312531882943
95,1436798159007,49.3480193278174
96,1436798159688,40.8964058767961
97,1436798160397,40.0379452689782
98,1436798161077,40.4067388738277
99,1436798161794,40.6627630770256
100,1436798162560,36.556862562403
101,1436798163296,35.1478742876982
102,1436798164013,23.1767114391236
103,1436798164735,35.8416187907541
104,1436798165460,52.5213592703953
105,1436798166212,42.0095097666824
106,1436798166967,34.3375614189099
107,1436798167678,26.6503355686882
108,1436798168398,22.0355891691491
109,1436798169113,17.3387606823517
110,1436798169856,40.3142200882813
111,1436798170614,39.9781457669922
112,1436798172132,31.317636925576
113,1436798172848,53.5678133709391
114,1436798173567,52.641556235643
115,1436798174340,38.2183245729057
116,1436798175106,42.8893809690457
117,1436798175821,53.0535493757416
118,1436798176512,25.6904055126664
119,1436798177185,32.0318838827313
120,1436798177876,13.8650013120405
121,1436798178590,50.7885996665295
122,1436798179280,35.3374223980976
123,1436798180094,50.1304515358673
124,1436798180827,24.6875093483292
125,1436798181560,25.4519975227254
126,1436798182274,32.1371595184883
127,1436798182980,55.2108813746304
128,1436798183636,16.8576546990208
129,1436798184438,52.6966107716603
130,1436798185166,31.1571596513089
131,1436798185880,25.3265714259894
132,1436798186636,32.9671899196207
133,1436798187354,37.5563924993372
134,1436798188103,26.3685658463389
135,1436798188831,55.9984563474986
136,1436798189629,18.1925818273841
137,1436798190358,26.4588279739416
138,1436798191105,52.0217658632407
139,1436798191843,32.8407402990183
140,1436798192617,24.7300056925344
141,1436798193352,35.8145494616542
142,1436798194046,55.5173614805532
143,1436798194721,18.1538653339485
144,1436798195451,56.1312783720295
145,1436798196194,24.0907556992495
146,1436798196928,39.8374163934838
147,1436798197672,37.8274854992209
148,1436798198435,54.1826852642804
149,1436798199162,45.3240150402806
150,1436798199920,41.7807682357892
151,1436798200668,40.1401462150047
152,1436798201394,59.4324234495829
153,1436798202188,48.904595762835
154,1436798202849,44.8975128040127
155,1436798203481,52.8451666547607
156,1436798204227,31.9642979419665
157,1436798204985,46.3554117694302
158,1436798205722,63.2614017155837
159,1436798206462,59.1106419778949
160,1436798207206,41.8076489084404
161,1436798207977,35.5533062156465
162,1436798208753,40.789921357675
163,1436798209495,29.1104598819252
164,1436798210236,49.1690624827448
165,1436798210983,24.9020773390164
166,1436798211721,33.9489325048761
167,1436798212437,61.6132510551946
168,1436798213118,41.6078722219608
169,1436798213862,26.3792912333203
170,1436798214657,48.7031781617945
171,1436798215434,36.199227902752
172,1436798216155,54.8022091700136
173,1436798216873,55.8130298713114
174,1436798217615,57.5130683163429
175,1436798218374,54.1557795128441
176,1436798219111,24.2046704468709
177,1436798219853,21.3911038276226
178,1436798220604,54.5866540057875
179,1436798221334,39.1443490409497
180,1436798222070,63.7607277128914
181,1436798222798,56.4881740470512
182,1436798223556,29.5261856624383
183,1436798224319,20.3282908061546
184,1436798225039,38.8075556386516
185,1436798225827,52.3600944568208
186,1436798226625,39.639179393729
187,1436798227341,32.1233001083799
188,1436798228066,60.7222668505522
189,1436798228848,17.1770520193522
190,1436798229693,44.2576452314064
191,1436798230422,18.0221320409588
192,1436798231139,35.2792323069705
193,1436798231863,41.4231026911073
194,1436798232627,41.6757582878749
195,1436798233317,35.704073985912
196,1436798234003,38.8118509744771
197,1436798234739,23.3855112548986
198,1436798235362,54.5552158763188
199,1436798236083,38.2314452555182
200,1436798236836,36.1236410867418
201,1436798237592,40.0199783806569
202,1436798238328,43.7909643067264
203,1436798238988,35.8543837343608
204,1436798239671,36.0052004456871
205,1436798240415,39.3295603845428
206,1436798241136,28.8948039592204
207,1436798241859,30.6008410008306
208,1436798242635,40.9498288027981
209,1436798243371,40.7391334412429
210,1436798244136,32.2843451488152
211,1436798244875,35.5219113372307
212,1436798245642,26.7092119128222
213,1436798246374,54.2057065381599
214,1436798247081,40.1754813466194
215,1436798247815,39.1559070179121
216,1436798248545,53.3862386303304
217,1436798249297,52.2620907675573
218,1436798250023,59.9002450331507
219,1436798250763,56.8227677834666
220,1436798251517,45.5476414887856
221,1436798252228,49.0747355250679
222,1436798252956,58.2253110108844
223,1436798253605,61.0994211060501
224,1436798254345,47.3699040824024
225,1436798255077,43.7516079726853
226,1436798255812,48.9494252188866
227,1436798256587,31.3633033578724
228,1436798257315,26.4340723801954
229,1436798258067,34.0335656380865
230,1436798258809,58.6765182074578
231,1436798259483,31.5680247463912
232,1436798260208,18.2827282849635
233,1436798260944,34.3684754291657
234,1436798261673,18.0782610825891
235,1436798262406,36.6853935121313
236,1436798263138,47.6817243038465
237,1436798263849,41.8259302314301
238,1436798264630,43.6741867973682
239,1436798265352,24.0464370290908
240,1436798266067,30.7390268317826
241,1436798266804,53.9749456250377
242,1436798267560,49.9411357360243
243,1436798268293,45.8759435716709
244,1436798269019,30.4888904566751
245,1436798269807,32.030317822933
246,1436798270536,30.1497727092461
247,1436798271275,47.4363690213884
248,1436798271995,26.6226196749544
249,1436798272733,33.6319140398823
250,1436798273458,55.2084059419693
251,1436798274228,30.7592905399074
252,1436798274971,49.1338286037652
253,1436798275687,17.8721892571961
254,1436798276430,35.272498646582
255,1436798277159,40.9163878050608
256,1436798277884,25.5209443571575
257,1436798278615,27.3176208481285
258,1436798279337,52.597446166137
259,1436798280056,52.0381242777402
260,1436798280795,39.7632720077176
261,1436798281568,23.3246964437664
262,1436798282285,27.9888832341071
263,1436798283019,60.3307824465993
264,1436798283757,41.4979030002944
265,1436798284494,36.4421505109792
266,1436798285228,54.2978561467963
267,1436798285973,17.8619914558391
268,1436798286787,53.6867221894639
269,1436798287569,29.3148044789885
270,1436798288300,35.0340840544774
271,1436798289087,65.5877735328427
272,1436798289821,24.9114666450074
273,1436798290584,48.7990488531877
274,1436798291324,32.0742066857025
275,1436798292094,56.9182566308724
276,1436798292806,36.9102745492956
277,1436798293466,40.2307573587201
278,1436798294137,24.1566766027714
279,1436798294910,19.1733424696464
280,1436798295640,23.7724995493053
281,1436798296299,39.0536759958321
282,1436798296888,43.0243554989887
283,1436798297601,38.10609318038
284,1436798298332,41.559362843133
285,1436798299055,40.3710297172058
286,1436798299806,18.2878781197466
287,1436798300443,31.9292982108871
288,1436798301135,37.2835879607693
289,1436798301885,34.456228528859
290,1436798302631,16.2228538025239
291,1436798303365,53.5505955236668
292,1436798304066,39.2609745395222
293,1436798304779,34.3402059820393
294,1436798305517,55.7380504749373
295,1436798306237,39.9966139519406
296,1436798306975,48.8614164487769
297,1436798307722,40.2902580628297
298,1436798308447,54.3513672447104
299,1436798309194,53.7387665074983
300,1436798309990,39.3266839312072
301,1436798310701,40.6694675485027
302,1436798311406,55.8153605417587
303,1436798312039,36.387525918427
304,1436798312721,55.2453310991744
305,1436798313459,37.003855205375
306,1436798314198,60.5971346055739
307,1436798314966,46.9990848602691
308,1436798315720,35.2681457416025
309,1436798316446,43.6340717785196
310,1436798317171,43.6084365455466
311,1436798317869,17.7152435974548
312,1436798318610,46.0148117187283
313,1436798319360,38.6339749810491
314,1436798320123,30.1644566579634
315,1436798320786,34.5041982996495
316,1436798321521,52.1183091419743
317,1436798322254,23.3892313887862
318,1436798322997,37.5427934158574
319,1436798323655,33.7133255245185
320,1436798324395,41.9844697330223
321,1436798325128,25.4991387241341
322,1436798326440,43.4984377711258
323,1436798327133,27.8244732372865
324,1436798327875,37.4380794627636
325,1436798328634,48.6890912521437
326,1436798329410,55.9797162893549
327,1436798330153,36.0401699672042
328,1436798330901,27.7752138537019
329,1436798331614,33.3305149275833
330,1436798332321,57.6481709834759
331,1436798333023,29.181407117765
332,1436798333754,52.8560935169005
333,1436798334574,64.398835420189
334,1436798335379,52.3652204125425
335,1436798336096,39.8102441351666
336,1436798336834,50.2615299093067
337,1436798338332,61.9165851532832
338,1436798338911,50.5869436033579
339,1436798339568,40.5365843362482
340,1436798340380,58.2264257175774
341,1436798341056,64.479724137795
342,1436798341757,44.2652485888096
343,1436798342480,37.5016849730965
344,1436798344271,16.8484235142117
345,1436798344946,53.8280313900864
346,1436798345663,44.4871093493199
347,1436798346400,34.4534218669606
348,1436798347114,31.3070974955688
349,1436798347847,61.6393540375255
350,1436798348568,41.6134925663588
351,1436798349288,25.3877540273636
352,1436798349928,40.0286297972938
353,1436798350675,17.8493523976725
354,1436798351404,17.555972523289
355,1436798352133,32.8320361384007
356,1436798352876,38.4619942933264
357,1436798353631,42.6764823717065
358,1436798354413,29.6089330503727
359,1436798355093,35.6864247438902
360,1436798355721,42.0109960298473
361,1436798356440,39.5756074682563
362,1436798357169,36.7837004876738
363,1436798357905,29.1982785209476
364,1436798358666,32.9821517932595
365,1436798359477,27.5994672309237
366,1436798360210,38.1578914819465
367,1436798360894,47.8691414093573
368,1436798361611,44.4511107878632
369,1436798362336,45.002293966965
370,1436798363065,23.9752927405597
371,1436798363853,34.2479301042728
372,1436798364606,45.7013613033934
373,1436798365368,41.8514754540031
374,1436798366082,55.9761945748026
375,1436798366831,31.8314183457482
376,1436798367506,46.5639254187502
377,1436798368248,23.8978203967091
378,1436798369018,41.2568744884089
379,1436798369797,40.0177371855196
380,1436798370562,56.4820262231929
381,1436798371296,26.1169475565929
382,1436798372026,48.1878939637722
383,1436798372759,44.8143627191304
384,1436798373485,40.8189536736728
385,1436798375312,40.4964020331961
386,1436798376038,39.8982283211115
387,1436798376776,45.3007576911117
388,1436798377509,23.7192411726985
389,1436798378230,23.8434028752699
390,1436798379019,34.5564718913057
391,1436798379765,27.9516441904242
392,1436798380522,40.7024908985718
393,1436798381246,19.4705566899453
394,1436798381984,17.6519276127495
395,1436798382717,45.9375578055263
396,1436798383425,16.9572718335562
397,1436798384127,13.1587447504131
398,1436798384843,20.795391000316
399,1436798385585,44.457758770128
400,1436798386274,43.8965131403571
401,1436798387019,45.71302480486
402,1436798387746,44.3402703757435
403,1436798388464,36.3933669219758
404,1436798389206,21.2461239865475
405,1436798389949,19.2661227540269
406,1436798390703,27.2332682289036
407,1436798392336,48.4751609210592
408,1436798392998,27.0426930870811
409,1436798393730,18.9733897299544
410,1436798394463,40.2919663827742
411,1436798395191,54.9777564993996
412,1436798395938,59.1302062417871
413,1436798396680,13.969209915159
414,1436798397396,59.5119078915868
415,1436798398148,12.2865054188298
416,1436798398891,37.9270070872641
417,1436798399736,14.8645662805787
418,1436798400428,22.0204220549999
419,1436798401149,37.9213803008351
420,1436798401775,32.5021832064821
421,1436798402530,22.3140080345553
422,1436798403253,43.4754119335675
423,1436798403994,51.3294261893583
424,1436798404777,28.6367760819675
425,1436798405531,49.1487693109974
426,1436798406315,59.0695002118583
427,1436798407067,44.8064299140724
428,1436798407801,57.0552529543677
429,1436798408538,37.4018821023984
430,1436798409209,33.9327467612378
431,1436798409988,19.4815960242695
432,1436798410720,37.4330964287772
433,1436798411414,17.6661098969593
434,1436798412028,15.2039293559116
435,1436798412724,44.650936301229
436,1436798413451,35.8546045421229
437,1436798414173,23.6828008287351
438,1436798414976,62.0873987755736
439,1436798415725,35.3377291048689
440,1436798416539,31.4807845034045
441,1436798417264,34.3967058237562
442,1436798417979,24.5456849046755
443,1436798418709,16.5367312141419
444,1436798419470,43.1160852293931
445,1436798420197,30.5535196876858
446,1436798420934,25.7211033420029
447,1436798421677,42.3437290702234
448,1436798422341,47.9999962613326
449,1436798423051,51.015954058515
450,1436798423776,16.8582728338149
451,1436798424561,57.0322857457259
452,1436798425316,34.8376423478576
453,1436798426068,51.7875384539623
454,1436798426808,26.9830157008902
455,1436798427544,41.2746269315173
456,1436798428263,44.3748165483772
457,1436798429004,24.3533864567653
458,1436798429739,41.9289430025958
459,1436798430495,29.5341357555652
460,1436798431248,23.1075081116835
461,1436798431988,44.5792805760667
462,1436798432720,30.112165134993
463,1436798433468,31.5237682133093
464,1436798434202,18.2778337456032
465,1436798434944,13.1291739901912
466,1436798435699,19.0043487514809
467,1436798436418,12.3973311460177
468,1436798437142,41.5286002366483
469,1436798437887,18.0229055071674
470,1436798438619,14.0725988633901
471,1436798439343,16.3101917701811
472,1436798440124,37.6155621961617
473,1436798440880,53.936583473631
474,1436798441577,54.7021076295634
475,1436798442319,39.2908048073155
476,1436798443054,47.2126334179865
477,1436798443790,35.7427381078062
478,1436798444569,45.1830738447847
479,1436798445259,55.4746315075458
480,1436798445934,39.5024009390236
481,1436798446662,38.3323537026276
482,1436798447405,36.7312211795664
483,1436798448153,38.7608112611111
484,1436798448867,41.2446117937375
485,1436798449666,56.0216240998496
486,1436798450389,16.9345046465741
487,1436798451082,53.3175841958486
488,1436798451739,52.5000456367856
489,1436798452419,40.9956642005875
490,1436798453161,33.3907797497264
491,1436798453903,55.2519913113331
492,1436798454643,23.717499118638
493,1436798455374,17.7641103024735
494,1436798456096,41.8322345558378
495,1436798456860,16.4440774327475
496,1436798457617,53.2512819035377
497,1436798458338,46.3123372759332
498,1436798459026,38.9926224530252
499,1436798459722,47.933831600263
500,1436798460472,58.9212913842421
501,1436798461233,44.5791028243883
502,1436798461962,45.5453392472189
503,1436798462651,53.3960560242807
504,1436798463388,21.3609768851439
505,1436798464126,52.7969153207768
506,1436798464842,58.0236513409122
507,1436798465595,18.8711400225515
508,1436798466314,64.2790910600705
509,1436798467102,37.8673450271283
510,1436798467791,39.3635996492323
511,1436798468466,36.2479421952276
512,1436798469184,38.2740552717774
513,1436798469908,61.6657848775285
514,1436798470659,40.0565887519096
515,1436798471407,37.0722237243024
516,1436798472146,41.7509713164774
517,1436798472853,21.5348609353598
518,1436798473481,29.0332106753154
519,1436798474196,57.8848666156588
520,1436798474958,47.3569154822827
521,1436798475704,25.0431030457587
522,1436798476437,35.184183808085
523,1436798477195,54.7089951961056
524,1436798477931,44.8810038618284
525,1436798478695,34.4587702091903
526,1436798479521,36.898035335445
527,1436798480246,31.0402808185554
528,1436798480980,25.467372490928
529,1436798481748,25.9993764743062
530,1436798482442,13.5680261286873
531,1436798483098,15.3218932273925
532,1436798483774,51.6198276120242
533,1436798484357,16.0866054120562
534,1436798485045,23.2117909443265
535,1436798485785,57.5737698321524
536,1436798486553,46.6242228584851
537,1436798487268,32.5330619154125
538,1436798488001,42.0295372362944
539,1436798488776,48.0276425649289
540,1436798489573,21.9632476534778
541,1436798490270,59.3262087675031
542,1436798491010,22.2531019016674
543,1436798491735,27.7126601745594
544,1436798492467,47.4325950397902
545,1436798493212,54.3910642352997
546,1436798493950,14.8449655016472
547,1436798494673,42.9640944545395
548,1436798495370,29.4433047880936
549,1436798496090,38.2479880202029
550,1436798496812,31.9220887666842
551,1436798497615,46.5559026481095
552,1436798498345,34.6722239204932
553,1436798499076,45.0597769505514
554,1436798499780,26.0151677675583
555,1436798500539,34.6042511557893
556,1436798501260,41.7997474072399
557,1436798501992,32.0820661736527
558,1436798502713,37.1636602335018
559,1436798503276,37.2830392542068
560,1436798503990,44.9970189454263
561,1436798504729,18.200813484868
562,1436798505432,17.7983904998958
563,1436798506042,32.504029392153
564,1436798506695,50.22391078288
565,1436798507350,49.0434846283689
566,1436798507951,29.2005209620042
567,1436798508571,43.9756185450001
568,1436798509256,36.102940267861
569,1436798509989,43.5079731570194
570,1436798510727,42.7295427659902
571,1436798511421,42.5470669972989
572,1436798512134,36.0753980383291
573,1436798512831,56.1062728663243
574,1436798513550,53.028247211782
575,1436798514287,40.5151981478854
