id,attr_time,attr_light
1,1438331472015,22.0
2,1438331472037,22.0
3,1438331472055,22.0
4,1438331472073,22.0
5,1438331472094,22.0
6,1438331472150,22.0
7,1438331472154,22.0
8,1438331472155,22.0
9,1438331472174,22.0
10,1438331472202,22.0
11,1438331472215,22.0
12,1438331472233,22.0
13,1438331472252,22.0
14,1438331472272,22.0
15,1438331472292,22.0
16,1438331472313,22.0
17,1438331472334,22.0
18,1438331472353,22.0
19,1438331472375,22.0
20,1438331472395,22.0
21,1438331472415,22.0
22,1438331472436,22.0
23,1438331472455,22.0
24,1438331472475,22.0
25,1438331472495,22.0
26,1438331472515,22.0
27,1438331472535,22.0
28,1438331472556,22.0
29,1438331472576,22.0
30,1438331472592,22.0
31,1438331472618,22.0
32,1438331472638,22.0
33,1438331472659,22.0
34,1438331472675,22.0
35,1438331472693,22.0
36,1438331472712,22.0
37,1438331472733,22.0
38,1438331472758,22.0
39,1438331472779,22.0
40,1438331472799,22.0
41,1438331472815,22.0
42,1438331472837,22.0
43,1438331472911,22.0
44,1438331472913,22.0
45,1438331472914,22.0
46,1438331472915,22.0
47,1438331472933,22.0
48,1438331472956,22.0
49,1438331472972,22.0
50,1438331472993,22.0
51,1438331473025,22.0
52,1438331473033,22.0
53,1438331473054,22.0
54,1438331473073,22.0
55,1438331473099,22.0
56,1438331473115,22.0
57,1438331473136,22.0
58,1438331473156,22.0
59,1438331473176,22.0
60,1438331473196,22.0
61,1438331473216,22.0
62,1438331473236,22.0
63,1438331473253,22.0
64,1438331473275,22.0
65,1438331473294,22.0
66,1438331473315,22.0
67,1438331473336,22.0
68,1438331473356,22.0
69,1438331473376,22.0
70,1438331473396,22.0
71,1438331473413,22.0
72,1438331473433,22.0
73,1438331473453,22.0
74,1438331473476,22.0
75,1438331473494,22.0
76,1438331473516,22.0
77,1438331473537,22.0
78,1438331473570,22.0
79,1438331473580,22.0
80,1438331473647,22.0
81,1438331473648,22.0
82,1438331473649,22.0
83,1438331473656,22.0
84,1438331473675,22.0
85,1438331473697,22.0
86,1438331473713,22.0
87,1438331473733,22.0
88,1438331473765,22.0
89,1438331473775,22.0
90,1438331473794,22.0
91,1438331473815,22.0
92,1438331473833,22.0
93,1438331473857,22.0
94,1438331473876,22.0
95,1438331473896,22.0
96,1438331473917,22.0
97,1438331473937,22.0
98,1438331473957,22.0
99,1438331473977,22.0
100,1438331473997,22.0
101,1438331474017,22.0
102,1438331474035,22.0
103,1438331474057,22.0
104,1438331474077,22.0
105,1438331474097,22.0
106,1438331474117,22.0
107,1438331474137,22.0
108,1438331474156,22.0
109,1438331474177,22.0
110,1438331474196,22.0
111,1438331474217,22.0
112,1438331474236,22.0
113,1438331474257,22.0
114,1438331474276,22.0
115,1438331474364,22.0
116,1438331474365,22.0
117,1438331474366,22.0
118,1438331474367,22.0
119,1438331474387,22.0
120,1438331474395,22.0
121,1438331474417,22.0
122,1438331474434,22.0
123,1438331474454,22.0
124,1438331474476,22.0
125,1438331474496,22.0
126,1438331474516,22.0
127,1438331474537,22.0
128,1438331474555,22.0
129,1438331474574,22.0
130,1438331474596,22.0
131,1438331474617,22.0
132,1438331474638,22.0
133,1438331474657,22.0
134,1438331474677,22.0
135,1438331474698,22.0
136,1438331474717,22.0
137,1438331474737,22.0
138,1438331474757,22.0
139,1438331474777,22.0
140,1438331474798,22.0
141,1438331474816,22.0
142,1438331474836,22.0
143,1438331474856,22.0
144,1438331474877,22.0
145,1438331474898,22.0
146,1438331474918,22.0
147,1438331474938,22.0
148,1438331474956,22.0
149,1438331474976,22.0
150,1438331474996,22.0
151,1438331475016,22.0
152,1438331475038,22.0
153,1438331475103,22.0
154,1438331475104,22.0
155,1438331475105,22.0
156,1438331475115,22.0
157,1438331475140,22.0
158,1438331475156,22.0
159,1438331475176,22.0
160,1438331475197,22.0
161,1438331475216,22.0
162,1438331475236,22.0
163,1438331475257,22.0
164,1438331475276,22.0
165,1438331475297,22.0
166,1438331475317,22.0
167,1438331475338,22.0
168,1438331475355,22.0
169,1438331475378,22.0
170,1438331475398,22.0
171,1438331475418,22.0
172,1438331475438,22.0
173,1438331475456,22.0
174,1438331475479,22.0
175,1438331475495,22.0
176,1438331475518,22.0
177,1438331475537,22.0
178,1438331475557,22.0
179,1438331475582,22.0
180,1438331475596,22.0
181,1438331475618,22.0
182,1438331475642,22.0
183,1438331475659,22.0
184,1438331475676,22.0
185,1438331475704,22.0
186,1438331475715,22.0
187,1438331475737,22.0
188,1438331475773,22.0
189,1438331475777,22.0
190,1438331475803,22.0
191,1438331475817,22.0
192,1438331475837,22.0
193,1438331475856,22.0
194,1438331475876,22.0
195,1438331475896,22.0
196,1438331475917,22.0
197,1438331475937,22.0
198,1438331475956,22.0
199,1438331475975,22.0
200,1438331476025,22.0
201,1438331476026,22.0
202,1438331476037,22.0
203,1438331476056,22.0
204,1438331476076,22.0
205,1438331476100,22.0
206,1438331476119,22.0
207,1438331476139,22.0
208,1438331476160,22.0
209,1438331476178,22.0
210,1438331476200,22.0
211,1438331476217,22.0
212,1438331476240,22.0
213,1438331476256,22.0
214,1438331476276,22.0
215,1438331476297,22.0
216,1438331476315,22.0
217,1438331476336,22.0
218,1438331476355,22.0
219,1438331476375,22.0
220,1438331476396,22.0
221,1438331476416,22.0
222,1438331476435,22.0
223,1438331476456,22.0
224,1438331476479,21.0
225,1438331476505,21.0
226,1438331476515,21.0
227,1438331476536,21.0
228,1438331476557,20.0
229,1438331476577,20.0
230,1438331476600,20.0
231,1438331476616,20.0
232,1438331476640,19.0
233,1438331476660,19.0
234,1438331476677,19.0
235,1438331476699,19.0
236,1438331476717,18.0
237,1438331476739,18.0
238,1438331476760,18.0
239,1438331476780,17.0
240,1438331476800,17.0
241,1438331476820,17.0
242,1438331476840,17.0
243,1438331476860,17.0
244,1438331476880,17.0
245,1438331476897,16.0
246,1438331476920,16.0
247,1438331476941,16.0
248,1438331476961,16.0
249,1438331476980,15.0
250,1438331477000,15.0
251,1438331477018,14.0
252,1438331477040,13.0
253,1438331477058,13.0
254,1438331477081,12.0
255,1438331477101,12.0
256,1438331477121,11.0
257,1438331477138,11.0
258,1438331477160,11.0
259,1438331477237,11.0
260,1438331477238,10.0
261,1438331477239,10.0
262,1438331477240,9.0
263,1438331477268,9.0
264,1438331477277,9.0
265,1438331477307,8.0
266,1438331477318,8.0
267,1438331477339,8.0
268,1438331477359,8.0
269,1438331477378,8.0
270,1438331477397,8.0
271,1438331477418,8.0
272,1438331477441,8.0
273,1438331477460,8.0
274,1438331477481,8.0
275,1438331477500,8.0
276,1438331477520,8.0
277,1438331477541,8.0
278,1438331477560,8.0
279,1438331477580,8.0
280,1438331477603,8.0
281,1438331477620,8.0
282,1438331477639,8.0
283,1438331477660,8.0
284,1438331477680,9.0
285,1438331477700,9.0
286,1438331477719,9.0
287,1438331477740,9.0
288,1438331477761,10.0
289,1438331477781,10.0
290,1438331477802,10.0
291,1438331477820,10.0
292,1438331477838,11.0
293,1438331477858,12.0
294,1438331477879,12.0
295,1438331477897,13.0
296,1438331477918,13.0
297,1438331477983,13.0
298,1438331477984,13.0
299,1438331477985,14.0
300,1438331477997,14.0
301,1438331478021,15.0
302,1438331478038,15.0
303,1438331478058,16.0
304,1438331478080,16.0
305,1438331478098,17.0
306,1438331478120,17.0
307,1438331478138,17.0
308,1438331478161,18.0
309,1438331478181,18.0
310,1438331478199,18.0
311,1438331478220,18.0
312,1438331478241,16.0
313,1438331478258,16.0
314,1438331478280,15.0
315,1438331478301,15.0
316,1438331478322,15.0
317,1438331478340,15.0
318,1438331478360,16.0
319,1438331478379,16.0
320,1438331478401,16.0
321,1438331478418,13.0
322,1438331478438,13.0
323,1438331478458,9.0
324,1438331478478,9.0
325,1438331478503,9.0
326,1438331478525,9.0
327,1438331478540,10.0
328,1438331478559,10.0
329,1438331478578,10.0
330,1438331478599,10.0
331,1438331478619,10.0
332,1438331478639,10.0
333,1438331478702,8.0
334,1438331478703,7.0
335,1438331478704,7.0
336,1438331478720,6.0
337,1438331478751,6.0
338,1438331478760,5.0
339,1438331478778,5.0
340,1438331478799,5.0
341,1438331478818,5.0
342,1438331478839,5.0
343,1438331478859,5.0
344,1438331478881,5.0
345,1438331478901,5.0
346,1438331478920,5.0
347,1438331478939,4.0
348,1438331478960,4.0
349,1438331478981,4.0
350,1438331479001,4.0
351,1438331479020,4.0
352,1438331479041,4.0
353,1438331479059,4.0
354,1438331479080,4.0
355,1438331479100,4.0
356,1438331479122,4.0
357,1438331479139,4.0
358,1438331479160,4.0
359,1438331479179,4.0
360,1438331479203,4.0
361,1438331479227,4.0
362,1438331479248,4.0
363,1438331479260,4.0
364,1438331479281,4.0
365,1438331479299,4.0
366,1438331479320,4.0
367,1438331479340,4.0
368,1438331479405,4.0
369,1438331479406,4.0
370,1438331479407,4.0
371,1438331479430,4.0
372,1438331479445,3.0
373,1438331479459,3.0
374,1438331479479,3.0
375,1438331479499,3.0
376,1438331479532,3.0
377,1438331479539,2.0
378,1438331479559,2.0
379,1438331479579,2.0
380,1438331479599,2.0
381,1438331479619,2.0
382,1438331479639,2.0
383,1438331479658,2.0
384,1438331479678,2.0
385,1438331479698,2.0
386,1438331479718,2.0
387,1438331479740,2.0
388,1438331479761,2.0
389,1438331479783,2.0
390,1438331479799,2.0
391,1438331479820,2.0
392,1438331479840,2.0
393,1438331479860,2.0
394,1438331479880,2.0
395,1438331479900,2.0
396,1438331479919,2.0
397,1438331479940,2.0
398,1438331479960,2.0
399,1438331479980,2.0
400,1438331480003,2.0
401,1438331480020,2.0
402,1438331480039,2.0
403,1438331480059,2.0
404,1438331480099,2.0
405,1438331480100,2.0
406,1438331480119,2.0
407,1438331480141,2.0
408,1438331480160,2.0
409,1438331480179,2.0
410,1438331480202,2.0
411,1438331480220,2.0
412,1438331480242,2.0
413,1438331480261,2.0
414,1438331480282,2.0
415,1438331480300,2.0
416,1438331480321,2.0
417,1438331480342,2.0
418,1438331480363,0.0
419,1438331480381,0.0
420,1438331480403,0.0
421,1438331480423,0.0
422,1438331480441,0.0
423,1438331480463,0.0
424,1438331480481,0.0
425,1438331480505,0.0
426,1438331480523,0.0
427,1438331480541,0.0
428,1438331480567,0.0
429,1438331480581,0.0
430,1438331480602,0.0
431,1438331480621,0.0
432,1438331480640,0.0
433,1438331480660,0.0
434,1438331480681,0.0
435,1438331480701,0.0
436,1438331480726,0.0
437,1438331480741,0.0
438,1438331480764,0.0
439,1438331480818,2.0
440,1438331480822,2.0
441,1438331480823,2.0
442,1438331480842,3.0
443,1438331480860,3.0
444,1438331480880,3.0
445,1438331480900,3.0
446,1438331480920,3.0
447,1438331480942,3.0
448,1438331480962,3.0
449,1438331480981,3.0
450,1438331481001,3.0
451,1438331481020,3.0
452,1438331481041,2.0
453,1438331481063,2.0
454,1438331481083,2.0
455,1438331481103,2.0
456,1438331481124,2.0
457,1438331481141,2.0
458,1438331481163,2.0
459,1438331481184,1.0
460,1438331481203,1.0
461,1438331481232,0.0
462,1438331481243,0.0
463,1438331481265,0.0
464,1438331481384,0.0
465,1438331481385,3.0
466,1438331481386,3.0
467,1438331481387,4.0
468,1438331481388,3.0
469,1438331481389,3.0
470,1438331481401,3.0
471,1438331481424,3.0
472,1438331481443,3.0
473,1438331481462,3.0
474,1438331481482,3.0
475,1438331481562,3.0
476,1438331481563,3.0
477,1438331481564,3.0
478,1438331481565,3.0
479,1438331481586,3.0
480,1438331481601,1.0
481,1438331481621,1.0
482,1438331481641,0.0
483,1438331481661,0.0
484,1438331481683,0.0
485,1438331481701,0.0
486,1438331481721,0.0
487,1438331481744,0.0
488,1438331481761,0.0
489,1438331481785,0.0
490,1438331481804,0.0
491,1438331481824,0.0
492,1438331481844,0.0
493,1438331481864,0.0
494,1438331481885,0.0
495,1438331481905,0.0
496,1438331481924,0.0
497,1438331481944,0.0
498,1438331481962,1.0
499,1438331481982,1.0
500,1438331482005,1.0
501,1438331482022,1.0
502,1438331482042,2.0
503,1438331482061,2.0
504,1438331482085,2.0
505,1438331482108,2.0
506,1438331482124,2.0
507,1438331482145,2.0
508,1438331482162,2.0
509,1438331482183,2.0
510,1438331482202,2.0
511,1438331482226,2.0
512,1438331482346,2.0
513,1438331482347,2.0
514,1438331482348,2.0
515,1438331482349,2.0
516,1438331482350,2.0
517,1438331482351,1.0
518,1438331482363,1.0
519,1438331482386,0.0
520,1438331482402,0.0
521,1438331482422,0.0
522,1438331482454,0.0
523,1438331482464,0.0
524,1438331482483,0.0
525,1438331482502,0.0
526,1438331482522,0.0
527,1438331482545,0.0
528,1438331482565,0.0
529,1438331482585,0.0
530,1438331482605,0.0
531,1438331482624,0.0
532,1438331482646,0.0
533,1438331482665,0.0
534,1438331482685,0.0
535,1438331482705,0.0
536,1438331482725,0.0
537,1438331482742,0.0
538,1438331482765,0.0
539,1438331482786,0.0
540,1438331482805,0.0
541,1438331482827,0.0
542,1438331482846,0.0
543,1438331482865,0.0
544,1438331482885,0.0
545,1438331482905,0.0
546,1438331482925,0.0
547,1438331482947,2.0
548,1438331482966,2.0
549,1438331482986,2.0
550,1438331483005,2.0
551,1438331483066,2.0
552,1438331483067,3.0
553,1438331483068,3.0
554,1438331483096,3.0
555,1438331483103,3.0
556,1438331483123,3.0
557,1438331483143,3.0
558,1438331483162,2.0
559,1438331483187,2.0
560,1438331483202,3.0
561,1438331483243,3.0
562,1438331483244,3.0
563,1438331483277,3.0
564,1438331483283,3.0
565,1438331483305,3.0
566,1438331483323,3.0
567,1438331483343,3.0
568,1438331483364,3.0
569,1438331483385,3.0
570,1438331483403,3.0
571,1438331483425,3.0
572,1438331483445,3.0
573,1438331483466,3.0
574,1438331483483,3.0
575,1438331483505,3.0
576,1438331483523,3.0
577,1438331483543,3.0
578,1438331483564,3.0
579,1438331483584,3.0
580,1438331483603,3.0
581,1438331483625,3.0
582,1438331483646,2.0
583,1438331483663,2.0
584,1438331483683,2.0
585,1438331483704,2.0
586,1438331483725,0.0
587,1438331483744,0.0
588,1438331483812,0.0
589,1438331483813,0.0
590,1438331483814,0.0
591,1438331483824,0.0
592,1438331483886,0.0
593,1438331483887,0.0
594,1438331483888,0.0
595,1438331483911,0.0
596,1438331483924,0.0
597,1438331483951,0.0
598,1438331483965,0.0
599,1438331483985,0.0
600,1438331484003,0.0
601,1438331484026,0.0
602,1438331484046,0.0
603,1438331484065,0.0
604,1438331484086,0.0
605,1438331484106,0.0
606,1438331484126,0.0
607,1438331484146,0.0
608,1438331484165,0.0
609,1438331484185,0.0
610,1438331484206,0.0
611,1438331484226,0.0
612,1438331484244,0.0
613,1438331484270,0.0
614,1438331484284,0.0
615,1438331484308,0.0
616,1438331484325,0.0
617,1438331484346,0.0
618,1438331484366,0.0
619,1438331484385,0.0
620,1438331484406,0.0
621,1438331484426,0.0
622,1438331484453,0.0
623,1438331484507,0.0
624,1438331484508,0.0
625,1438331484509,0.0
626,1438331484528,0.0
627,1438331484545,0.0
628,1438331484565,0.0
629,1438331484584,0.0
630,1438331484606,0.0
631,1438331484627,0.0
632,1438331484644,0.0
633,1438331484667,0.0
634,1438331484688,0.0
635,1438331484705,0.0
636,1438331484736,0.0
637,1438331484745,0.0
638,1438331484767,0.0
639,1438331484788,0.0
640,1438331484807,0.0
641,1438331484826,0.0
642,1438331484847,0.0
643,1438331484867,0.0
644,1438331484887,0.0
645,1438331484906,0.0
646,1438331484928,0.0
647,1438331484947,0.0
648,1438331484966,0.0
649,1438331484987,0.0
650,1438331485007,0.0
651,1438331485027,0.0
652,1438331485048,0.0
653,1438331485068,0.0
654,1438331485088,0.0
655,1438331485108,0.0
656,1438331485127,0.0
657,1438331485148,0.0
658,1438331485167,0.0
659,1438331485193,0.0
660,1438331485296,0.0
661,1438331485297,0.0
662,1438331485298,0.0
663,1438331485299,0.0
664,1438331485300,0.0
665,1438331485327,0.0
666,1438331485328,0.0
667,1438331485355,0.0
668,1438331485367,0.0
669,1438331485387,0.0
670,1438331485407,0.0
671,1438331485425,0.0
672,1438331485448,0.0
673,1438331485467,0.0
674,1438331485486,0.0
675,1438331485507,0.0
676,1438331485525,0.0
677,1438331485547,0.0
678,1438331485567,0.0
679,1438331485587,0.0
680,1438331485606,0.0
681,1438331485627,0.0
682,1438331485645,0.0
683,1438331485667,0.0
684,1438331485688,0.0
685,1438331485705,0.0
686,1438331485728,0.0
687,1438331485747,0.0
688,1438331485767,0.0
689,1438331485786,0.0
690,1438331485809,0.0
691,1438331485830,0.0
692,1438331485850,0.0
693,1438331485868,0.0
694,1438331485886,0.0
695,1438331485907,0.0
696,1438331485927,0.0
697,1438331485946,0.0
698,1438331485969,0.0
699,1438331486019,0.0
700,1438331486041,0.0
701,1438331486042,0.0
702,1438331486048,0.0
703,1438331486067,0.0
704,1438331486087,0.0
705,1438331486106,0.0
706,1438331486129,0.0
707,1438331486146,0.0
708,1438331486166,0.0
709,1438331486187,0.0
710,1438331486206,0.0
711,1438331486232,0.0
712,1438331486245,0.0
713,1438331486273,0.0
714,1438331486285,0.0
715,1438331486308,0.0
716,1438331486327,0.0
717,1438331486348,0.0
718,1438331486368,0.0
719,1438331486388,0.0
720,1438331486411,0.0
721,1438331486427,0.0
722,1438331486457,0.0
723,1438331486468,0.0
724,1438331486486,0.0
725,1438331486506,0.0
726,1438331486528,0.0
727,1438331486548,0.0
728,1438331486569,0.0
729,1438331486589,0.0
730,1438331486609,0.0
731,1438331486626,0.0
732,1438331486647,0.0
733,1438331486668,0.0
734,1438331486688,0.0
735,1438331486706,0.0
736,1438331486729,0.0
737,1438331486792,0.0
738,1438331486793,0.0
739,1438331486794,0.0
740,1438331486806,0.0
741,1438331486830,0.0
742,1438331486863,0.0
743,1438331486867,0.0
744,1438331486888,0.0
745,1438331486909,0.0
746,1438331486931,0.0
747,1438331486948,0.0
748,1438331486969,0.0
749,1438331486986,0.0
750,1438331487010,0.0
751,1438331487029,0.0
752,1438331487050,0.0
753,1438331487069,0.0
754,1438331487090,0.0
755,1438331487106,0.0
756,1438331487145,0.0
757,1438331487147,0.0
758,1438331487166,0.0
759,1438331487187,0.0
760,1438331487206,0.0
761,1438331487227,0.0
762,1438331487247,0.0
763,1438331487275,0.0
764,1438331487287,0.0
765,1438331487307,0.0
766,1438331487326,0.0
767,1438331487346,0.0
768,1438331487366,0.0
769,1438331487389,0.0
770,1438331487407,0.0
771,1438331487426,0.0
772,1438331487447,0.0
773,1438331487467,0.0
774,1438331487489,0.0
775,1438331487507,0.0
776,1438331487528,0.0
777,1438331487547,0.0
778,1438331487567,0.0
779,1438331487600,0.0
780,1438331487618,0.0
781,1438331487680,0.0
782,1438331487681,0.0
783,1438331487682,0.0
784,1438331487688,0.0
785,1438331487712,0.0
786,1438331487726,0.0
787,1438331487748,0.0
788,1438331487771,0.0
789,1438331487787,0.0
790,1438331487809,0.0
791,1438331487831,0.0
792,1438331487851,0.0
793,1438331487871,0.0
794,1438331487889,0.0
795,1438331487909,0.0
796,1438331487931,0.0
797,1438331487947,0.0
798,1438331487969,0.0
799,1438331487987,0.0
800,1438331488009,0.0
801,1438331488031,0.0
802,1438331488050,0.0
803,1438331488069,0.0
804,1438331488089,0.0
805,1438331488109,0.0
806,1438331488128,0.0
807,1438331488147,0.0
808,1438331488180,0.0
809,1438331488187,0.0
810,1438331488208,0.0
811,1438331488228,0.0
812,1438331488248,0.0
813,1438331488268,0.0
814,1438331488292,0.0
815,1438331488308,0.0
816,1438331488329,0.0
817,1438331488353,0.0
818,1438331488367,0.0
819,1438331488388,0.0
820,1438331488409,0.0
821,1438331488431,0.0
822,1438331488451,0.0
823,1438331488471,0.0
824,1438331488491,0.0
825,1438331488510,0.0
826,1438331488531,0.0
827,1438331488551,0.0
828,1438331488571,0.0
829,1438331488590,0.0
830,1438331488610,0.0
831,1438331488631,0.0
832,1438331488653,0.0
833,1438331488670,0.0
834,1438331488691,0.0
835,1438331488710,0.0
836,1438331488730,0.0
837,1438331488751,0.0
838,1438331488771,0.0
839,1438331488791,0.0
840,1438331488808,0.0
841,1438331488829,0.0
842,1438331488850,0.0
843,1438331488910,0.0
844,1438331488911,0.0
845,1438331488912,0.0
846,1438331488932,0.0
847,1438331488948,0.0
848,1438331488975,0.0
849,1438331488988,0.0
850,1438331489010,0.0
851,1438331489029,0.0
852,1438331489050,0.0
853,1438331489070,0.0
854,1438331489090,0.0
855,1438331489109,0.0
856,1438331489129,0.0
857,1438331489150,0.0
858,1438331489172,0.0
859,1438331489192,0.0
860,1438331489212,0.0
861,1438331489229,0.0
862,1438331489250,0.0
863,1438331489274,0.0
864,1438331489290,0.0
865,1438331489310,0.0
866,1438331489329,0.0
867,1438331489352,0.0
868,1438331489369,0.0
869,1438331489389,0.0
870,1438331489409,0.0
871,1438331489432,0.0
872,1438331489453,0.0
873,1438331489473,0.0
874,1438331489490,0.0
875,1438331489510,0.0
876,1438331489529,0.0
877,1438331489550,0.0
878,1438331489570,0.0
879,1438331489592,0.0
880,1438331489661,0.0
881,1438331489662,0.0
882,1438331489663,0.0
883,1438331489669,0.0
884,1438331489689,0.0
885,1438331489709,0.0
886,1438331489729,0.0
887,1438331489750,0.0
888,1438331489769,0.0
889,1438331489792,0.0
890,1438331489812,0.0
891,1438331489830,0.0
892,1438331489850,0.0
893,1438331489872,0.0
894,1438331489892,0.0
895,1438331489912,0.0
896,1438331489932,0.0
897,1438331489952,0.0
898,1438331489970,0.0
899,1438331489992,0.0
