id,attr_time,attr_light
1,1438331472022,3.0
2,1438331472044,3.0
3,1438331472063,3.0
4,1438331472082,3.0
5,1438331472102,3.0
6,1438331472124,3.0
7,1438331472145,3.0
8,1438331472164,3.0
9,1438331472185,3.0
10,1438331472205,3.0
11,1438331472225,3.0
12,1438331472244,3.0
13,1438331472263,3.0
14,1438331472282,3.0
15,1438331472303,3.0
16,1438331472321,3.0
17,1438331472345,3.0
18,1438331472368,3.0
19,1438331472386,3.0
20,1438331472405,3.0
21,1438331472425,3.0
22,1438331472444,3.0
23,1438331472462,3.0
24,1438331472483,3.0
25,1438331472552,3.0
26,1438331472553,3.0
27,1438331472554,3.0
28,1438331472575,3.0
29,1438331472583,3.0
30,1438331472603,3.0
31,1438331472623,3.0
32,1438331472642,3.0
33,1438331472662,3.0
34,1438331472684,3.0
35,1438331472703,3.0
36,1438331472725,3.0
37,1438331472748,3.0
38,1438331472766,3.0
39,1438331472786,3.0
40,1438331472806,3.0
41,1438331472823,3.0
42,1438331472843,3.0
43,1438331472863,3.0
44,1438331472885,3.0
45,1438331472906,3.0
46,1438331472925,3.0
47,1438331472945,3.0
48,1438331472968,3.0
49,1438331472986,3.0
50,1438331473005,3.0
51,1438331473025,3.0
52,1438331473045,3.0
53,1438331473065,3.0
54,1438331473085,3.0
55,1438331473106,3.0
56,1438331473125,3.0
57,1438331473145,3.0
58,1438331473166,3.0
59,1438331473186,3.0
60,1438331473207,3.0
61,1438331473225,3.0
62,1438331473316,3.0
63,1438331473317,3.0
64,1438331473318,3.0
65,1438331473319,3.0
66,1438331473329,3.0
67,1438331473346,3.0
68,1438331473368,3.0
69,1438331473383,3.0
70,1438331473413,3.0
71,1438331473437,3.0
72,1438331473449,3.0
73,1438331473466,3.0
74,1438331473484,3.0
75,1438331473503,3.0
76,1438331473523,3.0
77,1438331473545,3.0
78,1438331473566,3.0
79,1438331473586,3.0
80,1438331473606,3.0
81,1438331473626,3.0
82,1438331473647,3.0
83,1438331473664,3.0
84,1438331473684,3.0
85,1438331473703,3.0
86,1438331473735,3.0
87,1438331473748,3.0
88,1438331473766,3.0
89,1438331473797,3.0
90,1438331473806,3.0
91,1438331473825,3.0
92,1438331473846,3.0
93,1438331473866,3.0
94,1438331473888,3.0
95,1438331473908,3.0
96,1438331473927,3.0
97,1438331473945,3.0
98,1438331473966,3.0
99,1438331473996,3.0
100,1438331474071,3.0
101,1438331474072,3.0
102,1438331474073,3.0
103,1438331474074,3.0
104,1438331474088,3.0
105,1438331474107,3.0
106,1438331474125,3.0
107,1438331474145,3.0
108,1438331474165,3.0
109,1438331474193,3.0
110,1438331474203,3.0
111,1438331474229,3.0
112,1438331474245,3.0
113,1438331474264,3.0
114,1438331474287,3.0
115,1438331474306,3.0
116,1438331474327,3.0
117,1438331474348,3.0
118,1438331474367,3.0
119,1438331474386,3.0
120,1438331474406,3.0
121,1438331474423,3.0
122,1438331474445,3.0
123,1438331474465,3.0
124,1438331474485,3.0
125,1438331474507,3.0
126,1438331474535,3.0
127,1438331474544,3.0
128,1438331474564,3.0
129,1438331474585,3.0
130,1438331474605,3.0
131,1438331474624,3.0
132,1438331474644,3.0
133,1438331474665,3.0
134,1438331474686,3.0
135,1438331474707,3.0
136,1438331474725,3.0
137,1438331474859,3.0
138,1438331474860,3.0
139,1438331474861,3.0
140,1438331474862,3.0
141,1438331474863,3.0
142,1438331474864,3.0
143,1438331474865,3.0
144,1438331474891,3.0
145,1438331474908,3.0
146,1438331474925,3.0
147,1438331474945,3.0
148,1438331474965,3.0
149,1438331474984,3.0
150,1438331475005,3.0
151,1438331475024,3.0
152,1438331475047,3.0
153,1438331475067,3.0
154,1438331475087,3.0
155,1438331475107,3.0
156,1438331475125,3.0
157,1438331475145,3.0
158,1438331475166,3.0
159,1438331475187,3.0
160,1438331475207,3.0
161,1438331475225,3.0
162,1438331475247,3.0
163,1438331475267,3.0
164,1438331475285,3.0
165,1438331475304,3.0
166,1438331475326,3.0
167,1438331475346,3.0
168,1438331475367,3.0
169,1438331475419,3.0
170,1438331475420,3.0
171,1438331475426,3.0
172,1438331475447,3.0
173,1438331475466,3.0
174,1438331475485,3.0
175,1438331475557,3.0
176,1438331475558,3.0
177,1438331475559,3.0
178,1438331475578,3.0
179,1438331475586,3.0
180,1438331475606,3.0
181,1438331475628,3.0
182,1438331475645,3.0
183,1438331475665,3.0
184,1438331475686,3.0
185,1438331475707,3.0
186,1438331475726,3.0
187,1438331475748,3.0
188,1438331475778,3.0
189,1438331475788,3.0
190,1438331475806,3.0
191,1438331475828,3.0
192,1438331475848,3.0
193,1438331475866,3.0
194,1438331475885,3.0
195,1438331475906,3.0
196,1438331475927,3.0
197,1438331475947,3.0
198,1438331475970,3.0
199,1438331475985,3.0
200,1438331476007,3.0
201,1438331476030,3.0
202,1438331476049,3.0
203,1438331476069,3.0
204,1438331476088,3.0
205,1438331476109,3.0
206,1438331476128,3.0
207,1438331476147,3.0
208,1438331476167,3.0
209,1438331476189,3.0
210,1438331476211,3.0
211,1438331476229,3.0
212,1438331476247,3.0
213,1438331476309,3.0
214,1438331476326,3.0
215,1438331476327,3.0
216,1438331476328,3.0
217,1438331476346,3.0
218,1438331476371,3.0
219,1438331476386,3.0
220,1438331476407,3.0
221,1438331476427,3.0
222,1438331476446,3.0
223,1438331476467,3.0
224,1438331476487,3.0
225,1438331476509,3.0
226,1438331476530,3.0
227,1438331476550,3.0
228,1438331476569,3.0
229,1438331476588,3.0
230,1438331476607,3.0
231,1438331476627,3.0
232,1438331476646,3.0
233,1438331476666,3.0
234,1438331476688,3.0
235,1438331476711,3.0
236,1438331476726,3.0
237,1438331476748,3.0
238,1438331476778,3.0
239,1438331476794,3.0
240,1438331476813,3.0
241,1438331476829,3.0
242,1438331476849,3.0
243,1438331476867,3.0
244,1438331476886,3.0
245,1438331476909,3.0
246,1438331476929,3.0
247,1438331476949,3.0
248,1438331476967,3.0
249,1438331477041,3.0
250,1438331477043,3.0
251,1438331477058,3.0
252,1438331477059,3.0
253,1438331477070,3.0
254,1438331477087,3.0
255,1438331477110,3.0
256,1438331477126,3.0
257,1438331477146,3.0
258,1438331477168,3.0
259,1438331477188,3.0
260,1438331477208,3.0
261,1438331477229,3.0
262,1438331477251,3.0
263,1438331477270,3.0
264,1438331477289,3.0
265,1438331477308,3.0
266,1438331477328,3.0
267,1438331477347,3.0
268,1438331477367,3.0
269,1438331477387,3.0
270,1438331477408,3.0
271,1438331477428,3.0
272,1438331477450,3.0
273,1438331477474,3.0
274,1438331477494,3.0
275,1438331477514,3.0
276,1438331477534,3.0
277,1438331477551,3.0
278,1438331477568,3.0
279,1438331477587,3.0
280,1438331477609,3.0
281,1438331477632,3.0
282,1438331477652,3.0
283,1438331477667,3.0
284,1438331477688,3.0
285,1438331477715,3.0
286,1438331477820,3.0
287,1438331477821,3.0
288,1438331477822,3.0
289,1438331477823,3.0
290,1438331477824,2.0
291,1438331477840,2.0
292,1438331477853,2.0
293,1438331477873,2.0
294,1438331477887,2.0
295,1438331477908,2.0
296,1438331477944,2.0
297,1438331477948,2.0
298,1438331477967,2.0
299,1438331477989,2.0
300,1438331478010,2.0
301,1438331478029,2.0
302,1438331478049,2.0
303,1438331478068,2.0
304,1438331478088,2.0
305,1438331478107,2.0
306,1438331478128,2.0
307,1438331478149,2.0
308,1438331478169,2.0
309,1438331478190,2.0
310,1438331478215,2.0
311,1438331478232,2.0
312,1438331478251,2.0
313,1438331478270,2.0
314,1438331478289,2.0
315,1438331478308,2.0
316,1438331478330,2.0
317,1438331478351,2.0
318,1438331478372,2.0
319,1438331478391,3.0
320,1438331478410,3.0
321,1438331478429,3.0
322,1438331478449,3.0
323,1438331478545,3.0
324,1438331478546,3.0
325,1438331478548,3.0
326,1438331478549,3.0
327,1438331478550,3.0
328,1438331478569,3.0
329,1438331478588,3.0
330,1438331478610,3.0
331,1438331478628,3.0
332,1438331478653,3.0
333,1438331478668,3.0
334,1438331478689,3.0
335,1438331478710,3.0
336,1438331478732,3.0
337,1438331478753,3.0
338,1438331478773,3.0
339,1438331478789,3.0
340,1438331478810,3.0
341,1438331478830,3.0
342,1438331478849,3.0
343,1438331478871,3.0
344,1438331478890,3.0
345,1438331478909,3.0
346,1438331478928,3.0
347,1438331478949,3.0
348,1438331478968,4.0
349,1438331478988,4.0
350,1438331479008,4.0
351,1438331479028,4.0
352,1438331479049,4.0
353,1438331479072,4.0
354,1438331479093,4.0
355,1438331479114,4.0
356,1438331479131,4.0
357,1438331479150,3.0
358,1438331479169,3.0
359,1438331479302,3.0
360,1438331479303,3.0
361,1438331479304,3.0
362,1438331479305,3.0
363,1438331479306,3.0
364,1438331479307,3.0
365,1438331479311,3.0
366,1438331479338,4.0
367,1438331479349,4.0
368,1438331479368,4.0
369,1438331479390,4.0
370,1438331479409,4.0
371,1438331479433,4.0
372,1438331479449,5.0
373,1438331479470,5.0
374,1438331479490,5.0
375,1438331479509,5.0
376,1438331479529,5.0
377,1438331479549,6.0
378,1438331479570,6.0
379,1438331479589,6.0
380,1438331479610,6.0
381,1438331479631,6.0
382,1438331479650,7.0
383,1438331479672,7.0
384,1438331479690,7.0
385,1438331479710,7.0
386,1438331479732,7.0
387,1438331479749,7.0
388,1438331479819,7.0
389,1438331479820,7.0
390,1438331479821,8.0
391,1438331479832,8.0
392,1438331479849,8.0
393,1438331479869,8.0
394,1438331479890,8.0
395,1438331479910,9.0
396,1438331479929,9.0
397,1438331479961,9.0
398,1438331479993,9.0
399,1438331479994,8.0
400,1438331480011,8.0
401,1438331480029,8.0
402,1438331480049,8.0
403,1438331480069,7.0
404,1438331480089,7.0
405,1438331480109,7.0
406,1438331480130,7.0
407,1438331480150,7.0
408,1438331480171,7.0
409,1438331480191,7.0
410,1438331480211,7.0
411,1438331480230,7.0
412,1438331480249,7.0
413,1438331480269,7.0
414,1438331480292,7.0
415,1438331480310,7.0
416,1438331480330,7.0
417,1438331480350,6.0
418,1438331480370,6.0
419,1438331480391,6.0
420,1438331480412,6.0
421,1438331480516,6.0
422,1438331480517,6.0
423,1438331480518,6.0
424,1438331480519,6.0
425,1438331480520,6.0
426,1438331480530,6.0
427,1438331480552,6.0
428,1438331480570,6.0
429,1438331480590,6.0
430,1438331480613,5.0
431,1438331480633,5.0
432,1438331480655,5.0
433,1438331480671,5.0
434,1438331480693,5.0
435,1438331480826,6.0
436,1438331480827,6.0
437,1438331480828,6.0
438,1438331480829,6.0
439,1438331480830,6.0
440,1438331480831,6.0
441,1438331480837,5.0
442,1438331480853,5.0
443,1438331480870,5.0
444,1438331480890,6.0
445,1438331480924,6.0
446,1438331480931,6.0
447,1438331480953,6.0
448,1438331480972,6.0
449,1438331480990,6.0
450,1438331481010,6.0
451,1438331481031,6.0
452,1438331481052,6.0
453,1438331481072,6.0
454,1438331481092,6.0
455,1438331481110,6.0
456,1438331481131,6.0
457,1438331481152,6.0
458,1438331481171,6.0
459,1438331481191,6.0
460,1438331481210,6.0
461,1438331481230,6.0
462,1438331481251,6.0
463,1438331481273,6.0
464,1438331481292,6.0
465,1438331481311,6.0
466,1438331481330,6.0
467,1438331481351,6.0
468,1438331481372,5.0
469,1438331481393,5.0
470,1438331481411,5.0
471,1438331481431,5.0
472,1438331481457,5.0
473,1438331481542,5.0
474,1438331481543,5.0
475,1438331481544,6.0
476,1438331481545,6.0
477,1438331481551,6.0
478,1438331481576,6.0
479,1438331481591,6.0
480,1438331481612,6.0
481,1438331481631,6.0
482,1438331481651,6.0
483,1438331481671,6.0
484,1438331481692,6.0
485,1438331481710,6.0
486,1438331481737,6.0
487,1438331481757,6.0
488,1438331481779,5.0
489,1438331481794,5.0
490,1438331481813,5.0
491,1438331481831,5.0
492,1438331481852,5.0
493,1438331481873,5.0
494,1438331481895,6.0
495,1438331481915,6.0
496,1438331481933,6.0
497,1438331481958,6.0
498,1438331481973,6.0
499,1438331481992,6.0
500,1438331482011,6.0
501,1438331482031,5.0
502,1438331482051,5.0
503,1438331482071,5.0
504,1438331482092,5.0
505,1438331482112,5.0
506,1438331482137,5.0
507,1438331482174,5.0
508,1438331482175,5.0
509,1438331482240,5.0
510,1438331482241,5.0
511,1438331482242,5.0
512,1438331482259,5.0
513,1438331482275,5.0
514,1438331482299,6.0
515,1438331482312,5.0
516,1438331482332,5.0
517,1438331482365,5.0
518,1438331482372,5.0
519,1438331482393,5.0
520,1438331482413,5.0
521,1438331482432,5.0
522,1438331482456,5.0
523,1438331482475,5.0
524,1438331482493,5.0
525,1438331482512,5.0
526,1438331482533,6.0
527,1438331482555,6.0
528,1438331482575,6.0
529,1438331482594,6.0
530,1438331482615,6.0
531,1438331482634,6.0
532,1438331482656,5.0
533,1438331482673,5.0
534,1438331482693,5.0
535,1438331482712,5.0
536,1438331482734,5.0
537,1438331482757,5.0
538,1438331482780,5.0
539,1438331482798,5.0
540,1438331482813,5.0
541,1438331482834,4.0
542,1438331482853,4.0
543,1438331482872,4.0
544,1438331482893,4.0
545,1438331482979,5.0
546,1438331482984,5.0
547,1438331482985,5.0
548,1438331482986,5.0
549,1438331482993,5.0
550,1438331483012,5.0
551,1438331483033,5.0
552,1438331483054,5.0
553,1438331483076,5.0
554,1438331483093,5.0
555,1438331483115,5.0
556,1438331483133,4.0
557,1438331483158,4.0
558,1438331483172,4.0
559,1438331483195,4.0
560,1438331483216,4.0
561,1438331483236,4.0
562,1438331483255,4.0
563,1438331483274,4.0
564,1438331483293,4.0
565,1438331483313,4.0
566,1438331483335,4.0
567,1438331483358,4.0
568,1438331483373,4.0
569,1438331483395,4.0
570,1438331483418,4.0
571,1438331483437,4.0
572,1438331483457,4.0
573,1438331483476,4.0
574,1438331483495,4.0
575,1438331483515,4.0
576,1438331483533,4.0
577,1438331483556,4.0
578,1438331483577,4.0
579,1438331483596,4.0
580,1438331483617,4.0
581,1438331483635,4.0
582,1438331483714,4.0
583,1438331483715,4.0
584,1438331483716,4.0
585,1438331483717,4.0
586,1438331483734,4.0
587,1438331483782,4.0
588,1438331483783,4.0
589,1438331483797,4.0
590,1438331483815,4.0
591,1438331483833,4.0
592,1438331483867,4.0
593,1438331483873,4.0
594,1438331483895,4.0
595,1438331483913,4.0
596,1438331483936,4.0
597,1438331483956,4.0
598,1438331483976,4.0
599,1438331483996,4.0
600,1438331484016,4.0
601,1438331484037,5.0
602,1438331484057,5.0
603,1438331484078,5.0
604,1438331484097,5.0
605,1438331484115,5.0
606,1438331484135,5.0
607,1438331484155,5.0
608,1438331484208,5.0
609,1438331484209,5.0
610,1438331484213,5.0
611,1438331484233,5.0
612,1438331484259,5.0
613,1438331484276,5.0
614,1438331484294,5.0
615,1438331484313,5.0
616,1438331484336,5.0
617,1438331484364,5.0
618,1438331484375,5.0
619,1438331484393,5.0
620,1438331484414,5.0
621,1438331484449,4.0
622,1438331484464,4.0
623,1438331484473,4.0
624,1438331484494,4.0
625,1438331484518,4.0
626,1438331484568,4.0
627,1438331484569,4.0
628,1438331484587,4.0
629,1438331484594,4.0
630,1438331484622,4.0
631,1438331484635,4.0
632,1438331484660,4.0
633,1438331484674,4.0
634,1438331484696,4.0
635,1438331484715,4.0
636,1438331484734,4.0
637,1438331484757,4.0
638,1438331484780,4.0
639,1438331484796,4.0
640,1438331484814,4.0
641,1438331484836,4.0
642,1438331484855,4.0
643,1438331484877,4.0
644,1438331484894,4.0
645,1438331484915,4.0
646,1438331484938,4.0
647,1438331484959,4.0
648,1438331484979,4.0
649,1438331485000,4.0
650,1438331485017,4.0
651,1438331485036,4.0
652,1438331485055,4.0
653,1438331485075,4.0
654,1438331485188,4.0
655,1438331485189,4.0
656,1438331485190,4.0
657,1438331485191,4.0
658,1438331485192,4.0
659,1438331485218,4.0
660,1438331485219,4.0
661,1438331485237,4.0
662,1438331485256,4.0
663,1438331485309,4.0
664,1438331485310,4.0
665,1438331485327,4.0
666,1438331485335,4.0
667,1438331485357,4.0
668,1438331485380,4.0
669,1438331485394,4.0
670,1438331485417,4.0
671,1438331485471,4.0
672,1438331485472,4.0
673,1438331485474,4.0
674,1438331485497,4.0
675,1438331485517,4.0
676,1438331485537,4.0
677,1438331485558,4.0
678,1438331485578,4.0
679,1438331485598,4.0
680,1438331485616,4.0
681,1438331485636,4.0
682,1438331485657,4.0
683,1438331485676,4.0
684,1438331485697,4.0
685,1438331485718,4.0
686,1438331485737,4.0
687,1438331485757,4.0
688,1438331485779,4.0
689,1438331485797,4.0
690,1438331485816,4.0
691,1438331485863,4.0
692,1438331485864,4.0
693,1438331485875,4.0
694,1438331485895,4.0
695,1438331485914,4.0
696,1438331485937,4.0
697,1438331485958,4.0
698,1438331485977,4.0
699,1438331485996,4.0
700,1438331486015,4.0
701,1438331486036,4.0
702,1438331486059,4.0
703,1438331486078,4.0
704,1438331486097,4.0
705,1438331486116,4.0
706,1438331486137,4.0
707,1438331486158,4.0
708,1438331486177,4.0
709,1438331486197,4.0
710,1438331486220,4.0
711,1438331486238,4.0
712,1438331486257,4.0
713,1438331486275,4.0
714,1438331486295,4.0
715,1438331486316,4.0
716,1438331486340,4.0
717,1438331486360,4.0
718,1438331486382,4.0
719,1438331486399,4.0
720,1438331486418,4.0
721,1438331486436,4.0
722,1438331486457,4.0
723,1438331486476,4.0
724,1438331486496,4.0
725,1438331486556,4.0
726,1438331486559,4.0
727,1438331486560,4.0
728,1438331486582,4.0
729,1438331486598,4.0
730,1438331486622,4.0
731,1438331486636,4.0
732,1438331486658,4.0
733,1438331486678,4.0
734,1438331486697,4.0
735,1438331486717,4.0
736,1438331486742,4.0
737,1438331486763,4.0
738,1438331486778,4.0
739,1438331486798,4.0
740,1438331486819,4.0
741,1438331486838,4.0
742,1438331486857,4.0
743,1438331486875,4.0
744,1438331486896,4.0
745,1438331486917,4.0
746,1438331486939,4.0
747,1438331486958,4.0
748,1438331486984,4.0
749,1438331487000,4.0
750,1438331487019,4.0
751,1438331487038,4.0
752,1438331487058,4.0
753,1438331487078,4.0
754,1438331487098,4.0
755,1438331487119,4.0
756,1438331487140,4.0
757,1438331487159,4.0
758,1438331487178,4.0
759,1438331487199,4.0
760,1438331487218,4.0
761,1438331487237,4.0
762,1438331487325,4.0
763,1438331487326,5.0
764,1438331487327,5.0
765,1438331487328,4.0
766,1438331487336,4.0
767,1438331487357,4.0
768,1438331487376,4.0
769,1438331487399,4.0
770,1438331487422,4.0
771,1438331487440,4.0
772,1438331487459,4.0
773,1438331487477,4.0
774,1438331487497,4.0
775,1438331487518,4.0
776,1438331487538,4.0
777,1438331487559,4.0
778,1438331487580,4.0
779,1438331487601,4.0
780,1438331487620,4.0
781,1438331487639,4.0
782,1438331487658,4.0
783,1438331487678,4.0
784,1438331487697,4.0
785,1438331487716,4.0
786,1438331487739,4.0
787,1438331487758,4.0
788,1438331487778,4.0
789,1438331487797,4.0
790,1438331487820,4.0
791,1438331487841,4.0
792,1438331487861,4.0
793,1438331487882,4.0
794,1438331487900,4.0
795,1438331487918,4.0
796,1438331487938,4.0
797,1438331487959,4.0
798,1438331487977,4.0
799,1438331488046,4.0
800,1438331488047,5.0
801,1438331488048,5.0
802,1438331488069,5.0
803,1438331488078,5.0
804,1438331488097,5.0
805,1438331488146,4.0
806,1438331488147,4.0
807,1438331488158,4.0
808,1438331488177,4.0
809,1438331488197,4.0
810,1438331488221,4.0
811,1438331488264,4.0
812,1438331488265,4.0
813,1438331488277,4.0
814,1438331488298,4.0
815,1438331488317,4.0
816,1438331488338,4.0
817,1438331488357,4.0
818,1438331488378,4.0
819,1438331488397,4.0
820,1438331488418,4.0
821,1438331488436,4.0
822,1438331488456,4.0
823,1438331488478,4.0
824,1438331488496,4.0
825,1438331488517,4.0
826,1438331488539,4.0
827,1438331488556,4.0
828,1438331488577,4.0
829,1438331488599,4.0
830,1438331488620,4.0
831,1438331488638,4.0
832,1438331488658,4.0
833,1438331488676,4.0
834,1438331488698,4.0
835,1438331488719,4.0
836,1438331488737,4.0
837,1438331488757,4.0
838,1438331488794,4.0
839,1438331488798,4.0
840,1438331488816,4.0
841,1438331488836,4.0
842,1438331488857,4.0
843,1438331488880,4.0
844,1438331488897,4.0
845,1438331488917,4.0
846,1438331488940,4.0
847,1438331488959,4.0
848,1438331488979,4.0
849,1438331489001,4.0
850,1438331489019,4.0
851,1438331489040,4.0
852,1438331489058,4.0
853,1438331489078,4.0
854,1438331489099,4.0
855,1438331489119,4.0
856,1438331489138,4.0
857,1438331489160,4.0
858,1438331489181,4.0
859,1438331489229,4.0
860,1438331489230,4.0
861,1438331489240,4.0
862,1438331489257,4.0
863,1438331489278,4.0
864,1438331489300,4.0
865,1438331489321,4.0
866,1438331489340,4.0
867,1438331489360,4.0
868,1438331489379,4.0
869,1438331489402,4.0
870,1438331489469,4.0
871,1438331489470,4.0
872,1438331489471,4.0
873,1438331489481,4.0
874,1438331489500,4.0
875,1438331489520,4.0
876,1438331489539,4.0
877,1438331489560,4.0
878,1438331489579,4.0
879,1438331489599,4.0
880,1438331489621,4.0
881,1438331489639,4.0
882,1438331489660,4.0
883,1438331489680,4.0
884,1438331489701,4.0
885,1438331489720,4.0
886,1438331489741,4.0
887,1438331489762,4.0
888,1438331489781,4.0
889,1438331489805,5.0
890,1438331489821,5.0
891,1438331489840,5.0
892,1438331489862,5.0
893,1438331489880,5.0
894,1438331489900,5.0
895,1438331489919,5.0
896,1438331489940,5.0
897,1438331489959,5.0
898,1438331489982,5.0
899,1438331490002,5.0
900,1438331490023,5.0
901,1438331490042,5.0
902,1438331490060,5.0
903,1438331490080,5.0
904,1438331490100,5.0
905,1438331490187,5.0
906,1438331490188,5.0
907,1438331490189,5.0
908,1438331490190,5.0
909,1438331490215,5.0
910,1438331490219,5.0
911,1438331490240,5.0
912,1438331490260,5.0
