id,attr_time,attr_light
1,1436607529528,20.0
2,1436607529529,20.0
3,1436607529530,20.0
4,1436607529548,20.0
5,1436607529555,20.0
6,1436607529578,20.0
7,1436607529595,20.0
8,1436607529617,20.0
9,1436607529639,20.0
10,1436607529655,20.0
11,1436607529678,20.0
12,1436607529697,20.0
13,1436607529716,20.0
14,1436607529735,20.0
15,1436607529758,20.0
16,1436607529778,20.0
17,1436607529798,20.0
18,1436607529818,20.0
19,1436607529838,20.0
20,1436607529856,20.0
21,1436607529878,20.0
22,1436607529898,20.0
23,1436607529922,20.0
24,1436607529937,20.0
25,1436607529957,20.0
26,1436607529980,20.0
27,1436607530000,20.0
28,1436607530021,20.0
29,1436607530038,20.0
30,1436607530056,20.0
31,1436607530076,20.0
32,1436607530095,20.0
33,1436607530121,20.0
34,1436607530141,20.0
35,1436607530161,20.0
36,1436607530178,20.0
37,1436607530202,20.0
38,1436607530265,20.0
39,1436607530266,20.0
40,1436607530267,20.0
41,1436607530278,20.0
42,1436607530304,20.0
43,1436607530317,20.0
44,1436607530335,20.0
45,1436607530358,20.0
46,1436607530377,20.0
47,1436607530398,20.0
48,1436607530422,20.0
49,1436607530438,20.0
50,1436607530455,20.0
51,1436607530478,20.0
52,1436607530498,20.0
53,1436607530519,20.0
54,1436607530541,20.0
55,1436607530558,20.0
56,1436607530578,20.0
57,1436607530599,20.0
58,1436607530619,20.0
59,1436607530639,20.0
60,1436607530658,20.0
61,1436607530678,20.0
62,1436607530699,20.0
63,1436607530718,20.0
64,1436607530736,20.0
65,1436607530758,20.0
66,1436607530776,20.0
67,1436607530800,20.0
68,1436607530821,20.0
69,1436607530839,20.0
70,1436607530858,20.0
71,1436607530877,20.0
72,1436607530898,20.0
73,1436607530918,20.0
74,1436607530936,20.0
75,1436607531010,20.0
76,1436607531011,20.0
77,1436607531012,20.0
78,1436607531019,20.0
79,1436607531038,20.0
80,1436607531059,20.0
81,1436607531078,20.0
82,1436607531096,20.0
83,1436607531118,20.0
84,1436607531138,20.0
85,1436607531158,20.0
86,1436607531179,20.0
87,1436607531201,20.0
88,1436607531220,20.0
89,1436607531240,20.0
90,1436607531260,20.0
91,1436607531280,20.0
92,1436607531299,20.0
93,1436607531320,20.0
94,1436607531340,20.0
95,1436607531360,20.0
96,1436607531380,20.0
97,1436607531406,20.0
98,1436607531420,20.0
99,1436607531439,20.0
100,1436607531456,20.0
101,1436607531480,20.0
102,1436607531499,20.0
103,1436607531519,20.0
104,1436607531538,20.0
105,1436607531559,20.0
106,1436607531580,20.0
107,1436607531600,20.0
108,1436607531619,20.0
109,1436607531638,20.0
110,1436607531666,20.0
111,1436607531724,20.0
112,1436607531725,20.0
113,1436607531726,20.0
114,1436607531744,20.0
115,1436607531757,20.0
116,1436607531783,20.0
117,1436607531800,20.0
118,1436607531819,20.0
119,1436607531839,20.0
120,1436607531857,20.0
121,1436607531880,20.0
122,1436607531899,20.0
123,1436607531917,20.0
124,1436607531938,20.0
125,1436607531960,20.0
126,1436607531980,20.0
127,1436607531999,20.0
128,1436607532020,20.0
129,1436607532040,20.0
130,1436607532060,20.0
131,1436607532080,20.0
132,1436607532100,20.0
133,1436607532121,20.0
134,1436607532140,20.0
135,1436607532158,20.0
136,1436607532179,20.0
137,1436607532201,20.0
138,1436607532219,20.0
139,1436607532241,20.0
140,1436607532261,20.0
141,1436607532282,20.0
142,1436607532300,20.0
143,1436607532319,20.0
144,1436607532340,20.0
145,1436607532360,20.0
146,1436607532386,20.0
147,1436607532502,20.0
148,1436607532503,20.0
149,1436607532504,20.0
150,1436607532505,20.0
151,1436607532506,20.0
152,1436607532507,20.0
153,1436607532519,20.0
154,1436607532538,20.0
155,1436607532558,20.0
156,1436607532578,20.0
157,1436607532599,20.0
158,1436607532619,20.0
159,1436607532638,20.0
160,1436607532659,20.0
161,1436607532678,20.0
162,1436607532701,20.0
163,1436607532719,20.0
164,1436607532741,20.0
165,1436607532761,20.0
166,1436607532781,20.0
167,1436607532801,20.0
168,1436607532819,20.0
169,1436607532841,20.0
170,1436607532861,20.0
171,1436607532883,20.0
172,1436607532899,20.0
173,1436607532920,20.0
174,1436607532940,20.0
175,1436607532958,20.0
176,1436607532979,20.0
177,1436607533005,20.0
178,1436607533024,20.0
179,1436607533044,20.0
180,1436607533061,20.0
181,1436607533079,20.0
182,1436607533099,20.0
183,1436607533119,20.0
184,1436607533140,20.0
185,1436607533159,20.0
186,1436607533238,20.0
187,1436607533239,20.0
188,1436607533240,20.0
189,1436607533241,20.0
190,1436607533259,20.0
191,1436607533281,20.0
192,1436607533298,20.0
193,1436607533321,20.0
194,1436607533338,20.0
195,1436607533359,20.0
196,1436607533390,20.0
197,1436607533399,20.0
198,1436607533424,20.0
199,1436607533439,20.0
200,1436607533460,20.0
201,1436607533479,20.0
202,1436607533502,20.0
203,1436607533522,20.0
204,1436607533540,20.0
205,1436607533560,20.0
206,1436607533582,20.0
207,1436607533602,20.0
208,1436607533623,20.0
209,1436607533639,20.0
210,1436607533662,20.0
211,1436607533679,20.0
212,1436607533700,20.0
213,1436607533719,20.0
214,1436607533751,20.0
215,1436607533785,20.0
216,1436607533786,20.0
217,1436607533808,20.0
218,1436607533819,20.0
219,1436607533839,20.0
220,1436607533859,20.0
221,1436607533880,20.0
222,1436607533953,20.0
223,1436607533954,20.0
224,1436607533955,20.0
225,1436607533980,20.0
226,1436607533981,20.0
227,1436607534000,20.0
228,1436607534021,20.0
229,1436607534039,20.0
230,1436607534063,20.0
231,1436607534079,20.0
232,1436607534100,20.0
233,1436607534125,20.0
234,1436607534140,20.0
235,1436607534161,20.0
236,1436607534181,20.0
237,1436607534202,20.0
238,1436607534222,20.0
239,1436607534242,20.0
240,1436607534262,20.0
241,1436607534283,20.0
242,1436607534302,20.0
243,1436607534322,20.0
244,1436607534342,20.0
245,1436607534361,20.0
246,1436607534382,20.0
247,1436607534402,20.0
248,1436607534421,20.0
249,1436607534439,20.0
250,1436607534461,20.0
251,1436607534481,20.0
252,1436607534521,20.0
253,1436607534522,19.0
254,1436607534539,19.0
255,1436607534559,19.0
256,1436607534580,19.0
257,1436607534600,19.0
258,1436607534620,18.0
259,1436607534674,18.0
260,1436607534675,18.0
261,1436607534684,18.0
262,1436607534705,18.0
263,1436607534720,18.0
264,1436607534741,17.0
265,1436607534760,17.0
266,1436607534780,16.0
267,1436607534801,16.0
268,1436607534821,15.0
269,1436607534841,15.0
270,1436607534862,14.0
271,1436607534880,14.0
272,1436607534901,14.0
273,1436607534921,13.0
274,1436607534940,13.0
275,1436607534963,12.0
276,1436607534982,12.0
277,1436607535003,11.0
278,1436607535023,11.0
279,1436607535043,10.0
280,1436607535063,10.0
281,1436607535084,9.0
282,1436607535101,9.0
283,1436607535123,9.0
284,1436607535142,9.0
285,1436607535160,8.0
286,1436607535182,7.0
287,1436607535203,7.0
288,1436607535223,6.0
289,1436607535243,6.0
290,1436607535262,5.0
291,1436607535283,5.0
292,1436607535304,4.0
293,1436607535323,4.0
294,1436607535343,4.0
295,1436607535367,4.0
296,1436607535484,3.0
297,1436607535485,3.0
298,1436607535486,3.0
299,1436607535487,3.0
300,1436607535488,3.0
301,1436607535489,2.0
302,1436607535504,2.0
303,1436607535523,2.0
304,1436607535540,2.0
305,1436607535571,2.0
306,1436607535588,2.0
307,1436607535601,2.0
308,1436607535624,2.0
309,1436607535641,2.0
310,1436607535662,2.0
311,1436607535684,2.0
312,1436607535704,2.0
313,1436607535723,2.0
314,1436607535744,2.0
315,1436607535764,2.0
316,1436607535784,2.0
317,1436607535804,2.0
318,1436607535823,2.0
319,1436607535844,2.0
320,1436607535862,2.0
321,1436607535884,2.0
322,1436607535905,2.0
323,1436607535921,2.0
324,1436607535941,2.0
325,1436607535961,2.0
326,1436607535983,2.0
327,1436607536009,2.0
328,1436607536026,2.0
329,1436607536044,2.0
330,1436607536061,2.0
331,1436607536081,2.0
332,1436607536101,2.0
333,1436607536122,2.0
334,1436607536207,2.0
335,1436607536208,2.0
336,1436607536209,2.0
337,1436607536210,2.0
338,1436607536221,2.0
339,1436607536241,2.0
340,1436607536261,2.0
341,1436607536281,3.0
342,1436607536302,3.0
343,1436607536321,3.0
344,1436607536342,3.0
345,1436607536369,3.0
346,1436607536382,4.0
347,1436607536405,4.0
348,1436607536422,5.0
349,1436607536444,5.0
350,1436607536463,6.0
351,1436607536484,6.0
352,1436607536503,7.0
353,1436607536522,7.0
354,1436607536543,8.0
355,1436607536565,9.0
356,1436607536582,9.0
357,1436607536604,10.0
358,1436607536622,10.0
359,1436607536643,10.0
360,1436607536665,10.0
361,1436607536685,11.0
362,1436607536703,11.0
363,1436607536725,11.0
364,1436607536743,11.0
365,1436607536764,11.0
366,1436607536815,11.0
367,1436607536816,11.0
368,1436607536822,11.0
369,1436607536842,11.0
370,1436607536873,11.0
371,1436607536928,11.0
372,1436607536929,11.0
373,1436607536930,11.0
374,1436607536955,11.0
375,1436607536962,11.0
376,1436607536986,12.0
377,1436607537003,12.0
378,1436607537022,14.0
379,1436607537042,14.0
380,1436607537062,16.0
381,1436607537086,16.0
382,1436607537105,16.0
383,1436607537123,14.0
384,1436607537143,14.0
385,1436607537164,13.0
386,1436607537185,13.0
387,1436607537205,12.0
388,1436607537225,12.0
389,1436607537243,12.0
390,1436607537263,12.0
391,1436607537285,11.0
392,1436607537305,11.0
393,1436607537325,11.0
394,1436607537349,11.0
395,1436607537365,11.0
396,1436607537392,11.0
397,1436607537405,10.0
398,1436607537423,10.0
399,1436607537443,10.0
400,1436607537463,10.0
401,1436607537482,10.0
402,1436607537503,9.0
403,1436607537528,9.0
404,1436607537543,9.0
405,1436607537563,9.0
406,1436607537582,8.0
407,1436607537608,8.0
408,1436607537668,8.0
409,1436607537669,8.0
410,1436607537670,7.0
411,1436607537688,6.0
412,1436607537703,6.0
413,1436607537723,6.0
414,1436607537743,6.0
415,1436607537763,6.0
416,1436607537783,6.0
417,1436607537804,6.0
418,1436607537825,6.0
419,1436607537844,6.0
420,1436607537865,6.0
421,1436607537886,6.0
422,1436607537906,6.0
423,1436607537923,6.0
424,1436607537946,6.0
425,1436607537963,6.0
426,1436607537983,6.0
427,1436607538006,6.0
428,1436607538025,5.0
429,1436607538046,5.0
430,1436607538064,5.0
431,1436607538088,5.0
432,1436607538107,4.0
433,1436607538127,4.0
434,1436607538148,4.0
435,1436607538168,4.0
436,1436607538185,4.0
437,1436607538204,4.0
438,1436607538223,3.0
439,1436607538243,3.0
440,1436607538269,3.0
441,1436607538289,2.0
442,1436607538309,2.0
443,1436607538326,2.0
444,1436607538347,2.0
445,1436607538414,2.0
446,1436607538415,2.0
447,1436607538416,2.0
448,1436607538453,2.0
449,1436607538454,2.0
450,1436607538463,2.0
451,1436607538483,2.0
452,1436607538504,2.0
453,1436607538523,2.0
454,1436607538549,2.0
455,1436607538563,2.0
456,1436607538586,2.0
457,1436607538604,2.0
458,1436607538626,2.0
459,1436607538647,2.0
460,1436607538666,2.0
461,1436607538686,2.0
462,1436607538706,2.0
463,1436607538728,2.0
464,1436607538746,2.0
465,1436607538767,2.0
466,1436607538786,2.0
467,1436607538806,2.0
468,1436607538828,2.0
469,1436607538852,2.0
470,1436607538884,2.0
471,1436607538885,2.0
472,1436607538905,2.0
473,1436607538924,2.0
474,1436607538944,2.0
475,1436607538966,2.0
476,1436607538985,2.0
477,1436607539009,2.0
478,1436607539034,2.0
479,1436607539047,3.0
480,1436607539064,3.0
481,1436607539086,3.0
482,1436607539104,4.0
483,1436607539126,4.0
484,1436607539147,4.0
485,1436607539205,4.0
486,1436607539206,5.0
487,1436607539207,5.0
488,1436607539224,5.0
489,1436607539246,5.0
490,1436607539265,6.0
491,1436607539284,6.0
492,1436607539304,6.0
493,1436607539326,6.0
494,1436607539345,7.0
495,1436607539367,7.0
496,1436607539392,7.0
497,1436607539406,7.0
498,1436607539431,7.0
499,1436607539447,6.0
500,1436607539468,6.0
501,1436607539488,6.0
502,1436607539507,6.0
503,1436607539528,6.0
504,1436607539548,6.0
505,1436607539567,6.0
506,1436607539591,6.0
507,1436607539608,6.0
508,1436607539625,6.0
509,1436607539648,6.0
510,1436607539677,6.0
511,1436607539685,6.0
512,1436607539705,6.0
513,1436607539724,6.0
514,1436607539745,6.0
515,1436607539768,6.0
516,1436607539788,5.0
517,1436607539808,5.0
518,1436607539828,5.0
519,1436607539849,5.0
520,1436607539865,4.0
521,1436607539886,4.0
522,1436607539958,4.0
523,1436607539959,3.0
524,1436607539960,3.0
525,1436607539970,3.0
526,1436607539986,3.0
527,1436607540011,2.0
528,1436607540025,2.0
529,1436607540053,2.0
530,1436607540067,2.0
531,1436607540088,2.0
532,1436607540107,2.0
533,1436607540127,2.0
534,1436607540145,2.0
535,1436607540166,2.0
536,1436607540188,2.0
537,1436607540208,1.0
538,1436607540228,1.0
539,1436607540248,1.0
540,1436607540268,1.0
541,1436607540287,1.0
542,1436607540308,1.0
543,1436607540328,1.0
544,1436607540347,1.0
545,1436607540368,1.0
546,1436607540389,1.0
547,1436607540408,1.0
548,1436607540429,1.0
549,1436607540446,1.0
550,1436607540470,1.0
551,1436607540490,1.0
552,1436607540509,1.0
553,1436607540525,1.0
554,1436607540548,1.0
555,1436607540568,1.0
556,1436607540588,1.0
557,1436607540614,1.0
558,1436607540672,1.0
559,1436607540673,1.0
560,1436607540674,1.0
561,1436607540692,1.0
562,1436607540706,1.0
563,1436607540726,0.0
564,1436607540747,0.0
565,1436607540766,0.0
566,1436607540787,0.0
567,1436607540806,0.0
568,1436607540828,0.0
569,1436607540853,0.0
570,1436607540867,0.0
571,1436607540886,0.0
572,1436607540909,0.0
573,1436607540929,0.0
574,1436607540949,1.0
575,1436607540972,1.0
576,1436607540989,1.0
577,1436607541009,1.0
578,1436607541029,1.0
579,1436607541049,1.0
580,1436607541070,1.0
581,1436607541088,1.0
582,1436607541109,1.0
583,1436607541129,1.0
584,1436607541149,1.0
585,1436607541169,1.0
586,1436607541189,1.0
587,1436607541209,2.0
588,1436607541229,2.0
589,1436607541246,3.0
590,1436607541270,3.0
591,1436607541290,4.0
592,1436607541310,4.0
593,1436607541329,5.0
594,1436607541351,5.0
595,1436607541455,5.0
596,1436607541456,6.0
597,1436607541457,6.0
598,1436607541458,6.0
599,1436607541459,6.0
600,1436607541477,7.0
601,1436607541499,7.0
602,1436607541536,7.0
603,1436607541537,7.0
604,1436607541558,7.0
605,1436607541567,7.0
606,1436607541593,6.0
607,1436607541607,6.0
608,1436607541626,6.0
609,1436607541650,6.0
610,1436607541670,6.0
611,1436607541690,7.0
612,1436607541710,7.0
613,1436607541730,7.0
614,1436607541750,7.0
615,1436607541769,7.0
616,1436607541790,7.0
617,1436607541811,8.0
618,1436607541828,8.0
619,1436607541850,8.0
620,1436607541867,8.0
621,1436607541888,8.0
622,1436607541907,9.0
623,1436607541930,9.0
624,1436607541952,9.0
625,1436607541969,9.0
626,1436607541990,9.0
627,1436607542008,9.0
628,1436607542028,9.0
629,1436607542048,9.0
630,1436607542070,9.0
631,1436607542092,9.0
632,1436607542159,9.0
633,1436607542160,9.0
634,1436607542161,9.0
635,1436607542167,9.0
636,1436607542187,9.0
637,1436607542210,9.0
638,1436607542228,9.0
639,1436607542248,9.0
640,1436607542270,9.0
641,1436607542291,9.0
642,1436607542308,9.0
643,1436607542330,8.0
644,1436607542347,8.0
645,1436607542370,8.0
646,1436607542390,8.0
647,1436607542408,8.0
648,1436607542434,8.0
649,1436607542448,7.0
650,1436607542469,7.0
651,1436607542491,7.0
652,1436607542511,7.0
653,1436607542531,7.0
654,1436607542549,6.0
655,1436607542571,6.0
656,1436607542591,6.0
657,1436607542610,6.0
658,1436607542630,6.0
659,1436607542651,6.0
660,1436607542671,6.0
661,1436607542689,6.0
662,1436607542710,6.0
663,1436607542731,5.0
664,1436607542751,5.0
665,1436607542771,5.0
666,1436607542788,5.0
667,1436607542809,5.0
668,1436607542880,5.0
669,1436607542881,5.0
670,1436607542882,5.0
671,1436607542891,5.0
672,1436607542908,5.0
673,1436607542952,5.0
674,1436607542953,5.0
675,1436607542968,5.0
676,1436607542988,5.0
677,1436607543008,5.0
678,1436607543039,5.0
679,1436607543062,5.0
680,1436607543071,5.0
681,1436607543089,5.0
682,1436607543110,5.0
683,1436607543132,5.0
684,1436607543151,5.0
685,1436607543171,5.0
686,1436607543193,5.0
687,1436607543209,5.0
688,1436607543232,5.0
689,1436607543251,5.0
690,1436607543272,5.0
691,1436607543292,5.0
692,1436607543311,5.0
693,1436607543330,5.0
694,1436607543351,5.0
695,1436607543371,5.0
696,1436607543390,5.0
697,1436607543413,5.0
698,1436607543435,5.0
699,1436607543450,4.0
700,1436607543472,4.0
701,1436607543492,4.0
702,1436607543512,4.0
703,1436607543530,4.0
704,1436607543552,4.0
705,1436607543570,4.0
706,1436607543598,4.0
707,1436607543673,4.0
708,1436607543674,4.0
709,1436607543675,4.0
710,1436607543676,4.0
711,1436607543689,4.0
712,1436607543720,4.0
713,1436607543729,4.0
714,1436607543750,4.0
715,1436607543771,4.0
716,1436607543789,5.0
717,1436607543866,5.0
718,1436607543868,5.0
719,1436607543869,5.0
720,1436607543870,5.0
721,1436607543889,5.0
722,1436607543909,5.0
723,1436607543934,5.0
724,1436607543958,5.0
725,1436607543999,5.0
726,1436607544000,5.0
727,1436607544020,5.0
728,1436607544029,5.0
729,1436607544049,5.0
730,1436607544069,5.0
731,1436607544089,5.0
732,1436607544109,5.0
733,1436607544129,5.0
734,1436607544155,5.0
735,1436607544172,5.0
736,1436607544189,5.0
737,1436607544209,5.0
738,1436607544229,5.0
739,1436607544265,5.0
740,1436607544272,5.0
741,1436607544289,5.0
742,1436607544309,4.0
743,1436607544329,4.0
744,1436607544349,4.0
745,1436607544372,4.0
746,1436607544389,4.0
747,1436607544408,3.0
748,1436607544428,3.0
749,1436607544448,3.0
750,1436607544468,3.0
751,1436607544488,2.0
752,1436607544508,2.0
753,1436607544528,2.0
754,1436607544548,2.0
755,1436607544568,2.0
756,1436607544588,2.0
757,1436607544608,1.0
758,1436607544628,1.0
759,1436607544648,1.0
760,1436607544668,1.0
761,1436607544688,1.0
762,1436607544708,1.0
763,1436607544728,1.0
764,1436607544748,1.0
765,1436607544768,1.0
766,1436607544788,1.0
767,1436607544809,1.0
768,1436607544832,1.0
769,1436607544852,1.0
770,1436607544874,1.0
771,1436607544891,1.0
772,1436607544920,1.0
773,1436607544929,1.0
774,1436607544949,1.0
775,1436607544969,1.0
776,1436607544989,1.0
777,1436607545014,1.0
778,1436607545031,1.0
779,1436607545049,1.0
780,1436607545070,1.0
781,1436607545089,1.0
782,1436607545111,1.0
783,1436607545130,1.0
784,1436607545152,1.0
785,1436607545170,1.0
786,1436607545193,1.0
787,1436607545210,1.0
788,1436607545230,1.0
789,1436607545253,1.0
790,1436607545272,1.0
791,1436607545292,1.0
792,1436607545310,1.0
793,1436607545333,1.0
794,1436607545353,1.0
795,1436607545372,1.0
796,1436607545390,1.0
797,1436607545413,1.0
798,1436607545430,1.0
799,1436607545453,1.0
800,1436607545471,1.0
801,1436607545491,1.0
802,1436607545513,1.0
803,1436607545533,1.0
804,1436607545554,1.0
805,1436607545573,1.0
806,1436607545592,1.0
807,1436607545613,1.0
808,1436607545631,1.0
809,1436607545650,1.0
810,1436607545723,1.0
811,1436607545724,0.0
812,1436607545725,0.0
813,1436607545739,0.0
814,1436607545750,0.0
815,1436607545778,0.0
816,1436607545792,0.0
817,1436607545810,0.0
818,1436607545833,0.0
819,1436607545850,0.0
820,1436607545872,0.0
821,1436607545898,0.0
822,1436607545912,0.0
823,1436607545932,0.0
824,1436607545953,0.0
825,1436607545973,0.0
826,1436607545994,0.0
827,1436607546012,0.0
828,1436607546033,0.0
829,1436607546054,0.0
830,1436607546074,0.0
831,1436607546094,0.0
832,1436607546113,0.0
833,1436607546137,0.0
834,1436607546155,0.0
835,1436607546172,0.0
836,1436607546195,0.0
837,1436607546214,0.0
838,1436607546231,0.0
839,1436607546252,0.0
840,1436607546271,0.0
841,1436607546291,0.0
842,1436607546316,0.0
843,1436607546332,0.0
844,1436607546356,0.0
845,1436607546372,0.0
846,1436607546500,0.0
847,1436607546501,0.0
848,1436607546502,0.0
849,1436607546503,0.0
850,1436607546504,0.0
851,1436607546505,0.0
852,1436607546515,0.0
853,1436607546536,0.0
854,1436607546551,0.0
855,1436607546572,0.0
856,1436607546593,0.0
857,1436607546612,0.0
858,1436607546632,0.0
859,1436607546653,0.0
860,1436607546674,0.0
861,1436607546692,0.0
862,1436607546713,0.0
863,1436607546733,0.0
864,1436607546753,0.0
865,1436607546775,0.0
866,1436607546816,0.0
867,1436607546817,0.0
868,1436607546833,0.0
869,1436607546852,0.0
870,1436607546873,0.0
871,1436607546894,0.0
872,1436607546915,0.0
873,1436607546933,0.0
874,1436607546953,0.0
875,1436607546975,0.0
876,1436607546994,0.0
877,1436607547014,0.0
878,1436607547033,0.0
879,1436607547052,0.0
880,1436607547073,0.0
881,1436607547093,0.0
882,1436607547113,0.0
883,1436607547141,0.0
884,1436607547215,0.0
885,1436607547216,0.0
886,1436607547217,0.0
887,1436607547218,0.0
888,1436607547233,0.0
889,1436607547259,0.0
890,1436607547272,0.0
891,1436607547292,0.0
892,1436607547313,0.0
893,1436607547333,0.0
894,1436607547353,0.0
895,1436607547374,0.0
896,1436607547392,0.0
897,1436607547413,0.0
898,1436607547439,0.0
