id,attr_time,attr_db
1,1436620141635,46.8423906361699
2,1436620142357,48.1154743012785
3,1436620143095,45.6100785675441
4,1436620143763,52.6588231244803
5,1436620144503,46.173379188716
6,1436620145238,46.6494785584149
7,1436620145974,45.6992776682809
8,1436620146710,44.8881529470086
9,1436620147459,42.767299456347
10,1436620148159,42.1970912974538
11,1436620148758,41.0864218828875
12,1436620150131,37.2159289976014
13,1436620150799,44.5167924628791
14,1436620151530,43.6878301226839
15,1436620152252,44.1612847541935
16,1436620152991,44.6738521100281
17,1436620153728,41.3514194175051
18,1436620154358,40.8245792229156
19,1436620155092,43.8091912797459
20,1436620155724,50.7573360027454
21,1436620156417,46.1192412926567
22,1436620157150,40.6474178916885
23,1436620157906,40.5370352636992
24,1436620158653,35.8003453033756
25,1436620159432,40.45620562467
26,1436620160125,38.7285000544904
27,1436620160864,38.0430323789469
28,1436620161580,40.1925478044523
29,1436620162314,39.4777847179197
30,1436620163051,41.493901569429
31,1436620165171,44.6425542761744
32,1436620165899,40.9167518018106
33,1436620166612,42.6738896804399
34,1436620167378,45.33554995647
35,1436620168085,46.6689188762065
36,1436620168821,47.014026606584
37,1436620169603,46.5524263599354
38,1436620170395,41.3064044972328
39,1436620171067,40.9738676145766
40,1436620171791,41.7429364974831
41,1436620172513,36.8545125928899
42,1436620174409,41.5596315434297
43,1436620175161,43.8786995731307
44,1436620175837,39.8423701366316
45,1436620176511,42.4625429281356
46,1436620177257,46.5049039262163
47,1436620177984,37.1455183537706
48,1436620178728,39.2323939403144
49,1436620179518,38.1365899007405
50,1436620180239,39.3964165049918
51,1436620180988,35.4598482341341
52,1436620181727,37.113944303785
53,1436620182447,37.5911545113217
54,1436620183177,38.9605372661126
55,1436620183921,41.3867175407826
56,1436620184600,35.3320312031503
57,1436620185309,26.1407729091482
58,1436620186094,35.6076932158184
59,1436620186872,35.0301225063471
60,1436620187606,46.9584046259935
61,1436620188328,35.4690190775892
62,1436620189123,32.128488683785
63,1436620189884,34.3594115416882
64,1436620190610,41.4842039243696
65,1436620191379,36.6203185902039
66,1436620192056,23.2535147121995
67,1436620192777,34.8238338221665
68,1436620193512,34.4538917394007
69,1436620194238,37.8257158850504
70,1436620194933,22.547234174198
71,1436620195551,28.9959428968872
72,1436620196322,37.0696654918392
73,1436620197052,37.8498123356904
74,1436620197818,26.0101572022748
75,1436620198493,30.5575123476617
76,1436620199216,35.7299715763139
77,1436620199954,42.3202346520894
78,1436620200688,62.1359391084699
79,1436620201425,48.9009477391156
80,1436620202155,42.7998691980467
81,1436620202863,35.5375552752238
82,1436620203603,33.3533031266857
83,1436620204346,42.6120482946638
84,1436620205064,34.054176376648
85,1436620205744,34.9802509423426
86,1436620206453,43.1976549683734
87,1436620207190,42.8256274625835
88,1436620207911,38.9355954413369
89,1436620208645,33.909923963567
90,1436620209411,27.6657590890347
91,1436620210214,37.5441411404444
92,1436620210910,35.3437111110447
93,1436620211560,37.3099378266045
94,1436620212286,34.254987208908
95,1436620213013,42.1966174423417
96,1436620213733,39.2192498459201
97,1436620214466,36.7321636345881
98,1436620215159,28.0688922449088
99,1436620215752,28.6010344918391
100,1436620216417,30.0078126534431
101,1436620217090,30.0218417799458
102,1436620217813,38.0065058667079
103,1436620218516,36.4123642419927
104,1436620219235,35.9694446598584
105,1436620219904,33.0292610209441
106,1436620220662,38.7368577168462
107,1436620221395,36.2636132632147
108,1436620222127,34.5598426044224
109,1436620222853,34.7718420147951
110,1436620223555,35.5186848094388
111,1436620224288,39.7926601484208
112,1436620225021,38.2119045916444
113,1436620225679,37.3463279692347
114,1436620226404,35.318351232931
115,1436620227144,39.21662111973
116,1436620227890,41.602418970317
117,1436620228623,36.8780525277124
118,1436620229417,36.7416055995538
119,1436620230132,38.4676660387783
120,1436620230844,43.6096898977106
121,1436620231543,36.9629179237777
122,1436620232261,38.0783109141953
123,1436620232993,38.9502689429241
124,1436620233714,43.9832819678222
125,1436620234458,41.7973090477059
126,1436620235183,43.7763656919253
127,1436620235862,40.2764552708036
128,1436620236509,38.3464729616161
129,1436620237213,39.4221658920214
130,1436620237953,40.8873579634927
131,1436620238697,64.3110371832684
132,1436620239446,40.2173852389685
133,1436620240169,44.8309261155003
134,1436620240902,40.5807396088809
135,1436620241633,41.6075751819485
136,1436620242363,43.7018848060695
137,1436620243110,36.6181428301669
138,1436620243858,66.4055115523627
139,1436620244610,59.5642793832701
140,1436620245337,39.2875974912985
141,1436620246088,37.7403047797702
142,1436620246696,39.2449816422777
143,1436620247383,50.4397633289107
144,1436620248112,47.8702537248715
145,1436620248811,46.742843814108
146,1436620249542,45.6150713294975
147,1436620250259,75.8638631637784
148,1436620250938,71.0238495955327
149,1436620251638,37.675731930096
150,1436620252373,44.5015239560573
151,1436620253104,46.627661485587
152,1436620253818,39.0236709886502
153,1436620254567,49.8414605418815
154,1436620255301,36.73804394146
155,1436620256116,36.5580912866348
156,1436620256760,46.9797444916613
157,1436620257431,42.4729451946513
158,1436620258118,45.1965837951693
159,1436620258858,41.8067669655044
160,1436620259589,38.0288390038975
161,1436620260361,46.5446059965052
162,1436620261094,42.327413779236
163,1436620261813,42.5484323050002
164,1436620262530,34.9381957614649
165,1436620263231,36.5635468044736
166,1436620263897,46.903474873751
167,1436620264620,41.0831136771844
168,1436620265350,36.2036544600118
169,1436620266082,48.1473413131323
170,1436620266761,38.7684044482591
171,1436620267501,44.4276322364326
172,1436620268302,38.7946409231742
173,1436620269023,45.0434153226367
174,1436620269761,44.9245207176365
175,1436620270597,40.7774931265768
176,1436620271282,46.6761841875582
177,1436620272027,43.3855299147616
178,1436620272764,40.7321952872557
179,1436620273593,44.7666411699419
180,1436620274325,39.2196306404859
181,1436620275076,36.5151865214885
182,1436620275799,35.5733810803349
183,1436620276545,39.4433941831301
184,1436620277118,40.7363527861348
185,1436620277780,40.7030356473855
186,1436620278561,38.3130011569644
187,1436620279315,41.7540157539641
188,1436620280033,43.7127870747422
189,1436620280764,45.3066893876285
190,1436620281489,40.3245220376778
191,1436620282132,44.0428092292972
192,1436620282877,44.7018856542235
193,1436620283691,42.8960603366723
194,1436620284429,36.7445108981768
195,1436620285174,37.7544640052315
196,1436620285900,39.5659351587088
197,1436620286604,39.8502493829171
198,1436620287265,40.0292024768928
199,1436620288024,42.3185026068579
200,1436620288771,41.2929260385393
201,1436620289492,42.6545056985729
202,1436620290241,40.0939470786447
203,1436620290990,39.2097342411946
204,1436620291703,44.1773641074636
205,1436620292515,37.2708410299952
206,1436620293245,39.8809908281667
207,1436620293985,44.4117625663068
208,1436620294733,43.6649852581625
209,1436620295457,54.6694434627425
210,1436620296197,44.3977203008463
211,1436620296938,40.938706240065
212,1436620297597,39.8879094965514
213,1436620298367,48.8904926073205
214,1436620299534,51.9346945031165
215,1436620300177,43.1639199161012
216,1436620300844,50.1619874366589
217,1436620301630,39.7221453514584
218,1436620302331,55.6176699141733
219,1436620303052,45.5806805944154
220,1436620303876,46.8362548742722
221,1436620304620,44.1263729793427
222,1436620305348,49.1997945357562
223,1436620306066,39.0302323781261
224,1436620306790,48.8814427342926
225,1436620307482,44.5206628461157
226,1436620308192,57.080654694405
227,1436620308959,40.108719161811
228,1436620309703,42.8241258697034
229,1436620310442,52.0872738850804
230,1436620311165,43.8642753599079
231,1436620311877,36.9191669702854
232,1436620312552,41.3283245626874
233,1436620313323,39.9477967815128
234,1436620314062,41.1072108882597
235,1436620314790,48.4333915411555
236,1436620315526,46.8508235834424
237,1436620316258,51.6628355974998
238,1436620316978,51.1543332839343
239,1436620317598,55.8063225326972
240,1436620318289,55.7037882506896
241,1436620319019,44.2319369128727
242,1436620319730,47.8779337769232
243,1436620320466,43.5437798519577
244,1436620321195,45.5945957435303
245,1436620321907,43.7159539739503
246,1436620322630,43.2058384754622
247,1436620323283,43.3768789691221
248,1436620323912,55.4708618691082
249,1436620324598,41.6667381428735
250,1436620325316,40.2684239902811
251,1436620326055,37.4793442784754
252,1436620326797,59.5656740891217
253,1436620327505,40.932486652365
254,1436620328167,43.4712852891803
255,1436620328961,35.8849226859475
256,1436620329705,45.3149160239032
257,1436620330456,41.4719728855732
258,1436620331190,41.6026950107465
259,1436620331894,40.2638912790542
260,1436620332602,38.8224199792431
261,1436620333343,45.0416127849393
262,1436620334147,37.3575471948449
263,1436620334882,35.7205906034363
264,1436620335614,43.9508272817429
265,1436620336334,40.3794263667147
266,1436620337046,43.2114062825081
267,1436620337716,47.5037816965083
268,1436620338397,38.0308004841634
269,1436620339133,52.8221646103274
270,1436620339839,36.2040270135476
271,1436620340520,46.8699563995407
272,1436620341220,40.8402709911283
273,1436620341859,38.2154457161936
274,1436620343672,43.8392014597094
275,1436620344350,37.6653237216418
276,1436620345075,38.1261291059941
277,1436620345813,46.8358132367199
278,1436620346547,40.1344011435761
279,1436620347325,40.9187813447953
280,1436620348054,41.2565067576794
281,1436620348743,41.4911175182214
282,1436620349488,40.8914629387162
283,1436620350161,36.5767634874833
284,1436620350802,38.2394654636617
285,1436620351480,42.3274306235053
286,1436620352216,38.0896003262054
287,1436620352979,42.2783358321712
288,1436620353667,35.0508168473326
289,1436620354408,37.776184633359
290,1436620355151,48.0161912370778
291,1436620355907,50.8188444736183
292,1436620356631,39.9230822781508
293,1436620358636,41.2245508458793
294,1436620359364,38.9865204699563
295,1436620360084,44.1469981885146
296,1436620360837,39.6979567135168
297,1436620361586,40.2844586260402
298,1436620362246,44.4847490755687
299,1436620362984,44.9762237158926
300,1436620363750,44.1122983546434
301,1436620364482,37.0474440591132
302,1436620365213,43.9709666642836
303,1436620365929,41.7707907177105
304,1436620366662,39.5379349768469
305,1436620367384,32.6870002448721
306,1436620368121,41.1946923349158
307,1436620368883,47.677814673517
308,1436620369533,41.9502038462151
309,1436620370285,43.6239114932199
310,1436620371023,42.9217972880445
311,1436620371758,46.6034219132177
312,1436620372466,49.529156385751
313,1436620373185,44.8993170493478
314,1436620373900,37.8733184155669
315,1436620374608,40.067955375899
316,1436620375337,43.1753822407985
317,1436620376089,36.7533650330977
318,1436620376817,46.9635105411625
319,1436620377573,43.447749152144
320,1436620378248,31.3878643414803
321,1436620378938,43.3345536607638
322,1436620379648,37.4304890432252
323,1436620381361,33.7787945471213
324,1436620382043,45.6825987246717
325,1436620382806,27.499326566126
326,1436620383426,43.0302775815674
327,1436620384155,36.8843415222528
328,1436620384882,47.6570702821267
329,1436620385625,63.7296553719733
330,1436620386350,37.1782595630624
331,1436620387087,44.3778138719096
332,1436620387818,37.835158680053
333,1436620388566,51.9449179174859
334,1436620389252,44.2837543853675
335,1436620389900,46.4656129864112
336,1436620390667,41.9870952713485
337,1436620391425,49.9574422088589
338,1436620392164,55.7238934941072
339,1436620392879,37.8601073586509
340,1436620394632,33.4901065655813
341,1436620395290,43.0102385852346
342,1436620395998,40.0553381164129
343,1436620396719,37.51100721884
344,1436620397428,34.8913964161173
345,1436620398205,37.2399985338178
346,1436620398913,37.237831680727
347,1436620399637,43.6074002360304
348,1436620400277,42.6952469427523
349,1436620400982,53.173817483597
350,1436620401705,56.768141445038
351,1436620402473,61.1826498253615
352,1436620403172,42.2089026235449
353,1436620403842,43.8757603539503
354,1436620404543,40.6806491916326
355,1436620405271,52.140907943958
356,1436620406011,70.4770175005972
357,1436620406736,47.4722028136402
358,1436620407539,47.5266057977844
359,1436620408330,62.4356833164076
360,1436620409057,59.3691317069119
361,1436620409777,71.6355779727087
362,1436620410434,42.3207165296936
363,1436620411180,62.2143277278484
364,1436620411927,42.9354266860889
365,1436620412680,48.5864906561077
366,1436620413470,71.7219853750553
367,1436620414208,50.3631299991062
368,1436620414973,44.3967368935489
369,1436620415699,76.0479495943376
370,1436620416448,69.58381900249
371,1436620417173,68.6070898082671
372,1436620417904,69.599618780547
373,1436620418636,70.0723613857021
374,1436620419352,43.3905568147906
375,1436620420062,63.7164563995478
376,1436620420758,44.9392514229405
377,1436620421483,52.2653777122756
378,1436620422167,45.999726972188
379,1436620422923,71.1732450896214
380,1436620423637,42.9010835451413
381,1436620424342,47.0603447210727
382,1436620425079,54.3121967260859
383,1436620425809,68.2375302635367
384,1436620426615,45.6096630036864
385,1436620427377,50.0026996675343
386,1436620428114,45.5361141484
387,1436620428855,43.0177322653103
388,1436620429563,49.5067928891495
389,1436620430282,41.1091448642212
390,1436620431023,50.6241808570047
391,1436620431780,45.6752519612167
392,1436620432496,53.871457887536
393,1436620433253,52.2088353166773
394,1436620433977,65.6077611762998
395,1436620434716,65.508884565075
396,1436620435471,63.2539698116768
397,1436620436205,38.4357504449596
398,1436620436877,53.5384883279882
399,1436620437462,38.9997495050232
400,1436620438174,34.8395628115293
401,1436620438844,64.0010097936899
402,1436620439588,67.9866631498019
403,1436620440335,62.2398798394996
404,1436620441017,54.5959684893885
405,1436620441749,39.3084000298935
406,1436620442510,41.6835814803236
407,1436620443256,72.3473783130436
408,1436620443963,47.0520895624061
409,1436620444669,34.4656813965358
410,1436620445401,61.4384347203094
411,1436620446133,70.6149386629203
412,1436620446887,70.6039454967156
413,1436620447634,64.048258601392
414,1436620448370,70.7092962218419
415,1436620449141,43.7958319540922
416,1436620449863,68.457287577904
417,1436620450588,75.328096618646
418,1436620451260,63.5261715396225
419,1436620451981,61.2886650285801
420,1436620452710,64.465343611767
421,1436620453377,45.2468088631951
422,1436620454073,34.6434125602235
423,1436620454802,37.8523225714599
424,1436620455574,66.2084233624607
425,1436620456319,70.4486004610052
426,1436620457059,45.1955499670233
427,1436620457806,45.1542168975399
428,1436620458594,65.8517636257547
429,1436620459325,51.2841569944661
430,1436620460065,42.0268186931756
431,1436620460790,33.4639407092491
432,1436620461439,39.5470582940951
433,1436620462180,37.7772677223218
434,1436620462926,39.1666142300607
435,1436620463717,40.3849964821858
436,1436620464457,53.7679575536567
437,1436620465193,45.6555493671348
438,1436620465919,40.3602013720482
439,1436620466634,43.0741619548063
440,1436620467322,38.9449974637158
441,1436620467975,49.049240403959
442,1436620468705,43.7967419942409
443,1436620469435,38.2684092122178
444,1436620470175,45.614027495648
445,1436620470897,36.9052550734793
446,1436620471581,60.3197816922702
447,1436620472361,52.3583103631681
448,1436620473096,47.1565248142496
449,1436620473816,45.4288800101422
450,1436620474576,44.0218412813611
451,1436620475303,43.6718674558626
452,1436620476037,42.8832438981916
453,1436620476773,45.4563222991318
454,1436620477509,53.1751761260596
455,1436620478208,36.8898628891038
456,1436620478936,45.8596363705816
457,1436620479684,41.2048658453478
458,1436620480431,67.4771980758513
459,1436620481129,57.0238308380032
460,1436620481807,42.9646679262456
461,1436620482540,35.4650743391533
462,1436620483300,37.1702100935186
463,1436620484018,41.9943514321113
464,1436620484765,46.3005125577065
465,1436620485503,63.5635255076374
466,1436620486204,40.8630832751774
467,1436620486905,37.4341373169141
468,1436620487638,41.2058238677086
469,1436620488386,39.6090848554197
470,1436620489128,46.8501044945871
471,1436620489881,42.2946864896686
472,1436620490633,45.0152980489245
473,1436620491353,66.8495617453353
474,1436620492067,48.405438583917
475,1436620492755,33.7608275082219
476,1436620493473,66.0858658679021
477,1436620494214,54.7104077361781
478,1436620494927,40.1968744632509
479,1436620495656,42.1495737165732
480,1436620496400,37.7891375011368
481,1436620497122,37.9528296172302
482,1436620497857,35.7095441806292
483,1436620498533,43.7530433446368
484,1436620499268,68.7456926167882
485,1436620500010,64.5779918767351
486,1436620500762,63.6598036567934
487,1436620501364,51.8673435516144
488,1436620502037,43.5773902167021
489,1436620502744,70.435952961366
490,1436620503463,70.440556797099
491,1436620504164,63.1189505277727
492,1436620504831,38.8631607306803
493,1436620505551,48.2707912544969
494,1436620506303,44.448621569118
495,1436620507034,44.3545194334763
496,1436620507767,46.0409166655884
497,1436620508518,45.7755817944616
498,1436620509245,50.9080792343535
499,1436620509962,36.8719728894789
500,1436620510714,54.030739055291
501,1436620511442,57.5656142917596
502,1436620512176,60.3488283671691
503,1436620512832,66.3078946265901
504,1436620513555,45.7876810945893
505,1436620514335,42.2855246163914
506,1436620515053,61.7332105987831
507,1436620515796,57.5638584300384
508,1436620516609,68.7591455271528
509,1436620517338,41.0838963392998
510,1436620518063,45.8458248504242
511,1436620518869,42.7713601447962
512,1436620519598,39.8263691150405
513,1436620520334,33.6994052463726
514,1436620521069,44.3499121429017
515,1436620521796,44.2152909339765
516,1436620522528,56.8765400999223
517,1436620523314,66.9117516653293
518,1436620524053,70.2855240935879
519,1436620524779,71.9407269890685
520,1436620525465,38.8408300466041
521,1436620526116,43.1244748051931
522,1436620526822,53.425195895212
523,1436620527541,53.0063127548532
524,1436620528232,50.4081028200811
525,1436620528885,49.4378822988828
526,1436620529591,52.3157608834139
527,1436620530232,40.6318738180376
528,1436620530961,50.718077830916
529,1436620531699,46.5507965473862
530,1436620532458,43.7993017496133
531,1436620533106,42.4028235467506
532,1436620533913,41.7500245412187
533,1436620534643,51.3247950697015
534,1436620535392,46.4124792898039
535,1436620536102,59.157823605817
536,1436620536809,37.1894473014601
537,1436620537520,45.4566798500575
538,1436620538190,60.4270720665061
539,1436620538849,45.8145145212818
540,1436620539530,51.5787475392659
541,1436620540175,40.8499863363607
542,1436620540894,35.5976599849576
543,1436620541628,44.6878374208986
544,1436620542368,40.0941415111568
545,1436620543062,40.9147014977736
546,1436620543741,39.676864995464
547,1436620544464,67.4322236247245
548,1436620545203,66.922938653723
549,1436620545930,72.2216892644593
550,1436620547922,42.0362484485234
551,1436620548595,44.5554374300881
552,1436620549321,40.4728874110594
553,1436620550046,42.0544280153683
554,1436620550786,46.7274045399876
555,1436620551525,45.0416307282567
556,1436620552262,43.5546139965805
557,1436620552948,44.7500541550156
558,1436620553590,40.8644317485573
559,1436620554242,53.7977745839495
560,1436620554915,41.8585881653531
561,1436620555569,51.5940502899687
562,1436620556343,41.744751464947
563,1436620557062,42.5194158228451
564,1436620557803,40.5092858299286
565,1436620558646,39.2817758611743
566,1436620559258,32.6897107328448
567,1436620559955,46.1601339403236
568,1436620560687,43.9314762946484
569,1436620561414,41.9195799097645
570,1436620562139,38.7711647195226
571,1436620562868,40.8120135400856
572,1436620563578,41.7184036180604
573,1436620564299,38.9324024011458
574,1436620565021,37.0798622070406
575,1436620566825,37.5475863566039
