id,attr_time,attr_db
1,1436620141858,48.8279171463716
2,1436620142588,47.4759904571711
3,1436620143313,45.1605321607126
4,1436620144035,43.1016366914589
5,1436620144781,68.821083143256
6,1436620145495,46.9760788538307
7,1436620146222,41.9080260239973
8,1436620146943,42.0043777563922
9,1436620147634,43.021141270546
10,1436620148309,40.1281911457689
11,1436620149014,42.8538729383352
12,1436620149708,39.5114669757021
13,1436620150466,44.4038920899789
14,1436620151140,36.7199042515486
15,1436620151800,38.0928308538404
16,1436620152537,50.3832623878769
17,1436620153278,51.1752348761558
18,1436620154011,38.3637484101935
19,1436620154754,48.9580109210809
20,1436620155492,47.2086834375145
21,1436620156226,39.0253880187165
22,1436620156955,38.8789959907655
23,1436620157697,35.8045359280021
24,1436620158424,38.7956400065476
25,1436620159112,37.2922811012041
26,1436620159841,39.6368686468152
27,1436620160566,36.4630315575084
28,1436620161144,39.0008274333091
29,1436620161820,39.1119322208907
30,1436620162553,38.7919896298503
31,1436620163283,39.09692546834
32,1436620163995,40.1986328539987
33,1436620164808,41.1905921010933
34,1436620165548,41.3775829272325
35,1436620166294,45.1723686861332
36,1436620167017,45.6216315720372
37,1436620167720,46.7225731874984
38,1436620168381,46.3176553580007
39,1436620169076,42.9161953065365
40,1436620169742,43.8891983612793
41,1436620170436,42.4636517967446
42,1436620171158,39.4475228184159
43,1436620171878,39.9643985597356
44,1436620172609,36.7490961897592
45,1436620173333,36.063750046159
46,1436620174044,40.4499410426757
47,1436620174838,42.1177343104568
48,1436620175576,39.0892344978822
49,1436620176318,40.4237455423686
50,1436620177070,40.654838792748
51,1436620177783,39.0570413629696
52,1436620178508,33.2574399354709
53,1436620179208,33.7476469815831
54,1436620179893,31.2589298905206
55,1436620180630,32.1217755870521
56,1436620181384,20.3605052132408
57,1436620182087,23.6700807174959
58,1436620182792,25.6095788381699
59,1436620183468,22.7049716618787
60,1436620184215,22.5525266708916
61,1436620185019,29.1941130312167
62,1436620185744,21.0251981858665
63,1436620186490,21.764062479636
64,1436620187255,26.2887605454129
65,1436620187961,27.0973192038618
66,1436620188701,17.4143608709183
67,1436620189431,33.6932518743982
68,1436620190101,27.2539813270594
69,1436620190833,20.5112130970556
70,1436620191595,19.4860776346026
71,1436620192290,19.2198260174093
72,1436620192926,31.320828592485
73,1436620193626,28.8792651806947
74,1436620194361,22.4763837217209
75,1436620195080,23.2674253851312
76,1436620195807,24.51035045518
77,1436620196552,18.9905904744551
78,1436620197289,23.1072630487061
79,1436620198017,23.3775918137324
80,1436620198813,30.1874018304593
81,1436620199571,24.2738995568657
82,1436620200255,26.0650099572708
83,1436620201007,55.1506146202652
84,1436620201760,21.839536671708
85,1436620202563,25.3190385286643
86,1436620203228,30.5914774102883
87,1436620203996,30.9420522968226
88,1436620204703,24.2056038777995
89,1436620205439,20.8956566923091
90,1436620206159,36.3934282823315
91,1436620206898,35.2652636580204
92,1436620207611,33.5603322802547
93,1436620208317,29.7874523082369
94,1436620209024,29.1399218462269
95,1436620209762,26.7770715476979
96,1436620210433,27.2367565688448
97,1436620211177,34.696104165302
98,1436620211914,21.0401268293729
99,1436620212664,32.2157298887463
100,1436620213336,27.1277517548259
101,1436620214132,28.1627353276904
102,1436620214854,27.9173445123705
103,1436620215573,31.5010445297131
104,1436620216307,23.7581453463864
105,1436620217034,30.5971249053452
106,1436620217771,33.4460366448304
107,1436620218568,28.5842786914189
108,1436620219297,28.962555138405
109,1436620220053,32.7314418455638
110,1436620220750,32.7972075880411
111,1436620221450,31.6673220728852
112,1436620222174,30.6637656238662
113,1436620222908,28.4185038173053
114,1436620223669,27.0304272772871
115,1436620224351,32.0386099615791
116,1436620225088,27.4822261667884
117,1436620225808,27.6920410642905
118,1436620226525,27.9360097198623
119,1436620227259,31.6635090605683
120,1436620227980,27.9028335818255
121,1436620228722,28.887762658732
122,1436620229431,30.4378052859632
123,1436620230157,32.9098023396233
124,1436620230834,31.1876861674611
125,1436620231577,29.9111569080161
126,1436620232283,30.1957549387863
127,1436620232949,32.0982624346712
128,1436620233660,33.3866294485608
129,1436620234355,31.8398549830698
130,1436620235079,30.9123229359982
131,1436620235796,34.7501140967499
132,1436620236524,32.2328077758105
133,1436620237256,41.1133875105179
134,1436620237967,38.8504197684041
135,1436620238566,37.5886394411039
136,1436620239219,44.9158890776715
137,1436620239898,31.1957972136596
138,1436620240519,35.089507952457
139,1436620241192,37.5553446436311
140,1436620241922,36.475563778127
141,1436620242639,30.0506208101757
142,1436620243351,33.1447236418177
143,1436620244007,70.0508243710954
144,1436620244734,68.023321159451
145,1436620245397,28.7722055701086
146,1436620246053,30.5910734559226
147,1436620246740,36.2795102446349
148,1436620247444,41.727066912128
149,1436620248189,35.474368386621
150,1436620248945,50.4286922505497
151,1436620249647,43.331750493294
152,1436620250370,75.6157379339937
153,1436620251061,74.4889548352282
154,1436620251734,41.2589586902514
155,1436620252488,41.2399183542087
156,1436620253221,47.2091849882777
157,1436620255064,28.4305206999509
158,1436620255804,31.1395388472663
159,1436620256479,28.8382040535372
160,1436620257093,32.7695802130635
161,1436620257781,26.2571541150795
162,1436620258501,25.5332714375517
163,1436620259259,35.5716964348523
164,1436620259995,25.5987947387493
165,1436620260734,37.320503002982
166,1436620261497,30.1120406688917
167,1436620262229,29.7266515163783
168,1436620262965,27.2555135513515
169,1436620263677,27.1058599902698
170,1436620264411,36.8241422742355
171,1436620265074,34.6899576841146
172,1436620265819,32.3292795458759
173,1436620266558,29.1614516955516
174,1436620267248,35.3494534340326
175,1436620268905,34.6729080573712
176,1436620269620,35.6274482944141
177,1436620270347,34.6516649963331
178,1436620271063,36.4634118702929
179,1436620271754,29.5251344390697
180,1436620272422,35.5170854411891
181,1436620273146,32.1786841368677
182,1436620273882,35.0584041083938
183,1436620274671,32.1261897202997
184,1436620275247,31.9841976257533
185,1436620275956,30.6564036746704
186,1436620276701,29.583893285217
187,1436620277434,30.936650327867
188,1436620278143,29.5218885805258
189,1436620278869,33.714938638344
190,1436620279688,34.1809564329565
191,1436620280418,32.2866130100083
192,1436620281156,31.9541861408903
193,1436620281877,31.5274058667869
194,1436620282508,25.7491447700126
195,1436620283193,28.653513583175
196,1436620283920,29.6506176565192
197,1436620284739,26.1334391937061
198,1436620285390,28.4531320204918
199,1436620286110,25.4592493561999
200,1436620286845,28.6099561980931
201,1436620287593,35.6085325371538
202,1436620288323,26.1944675878937
203,1436620289045,31.1140281106633
204,1436620289839,30.4844955167891
205,1436620290535,37.996819701163
206,1436620292224,28.0084590787414
207,1436620292900,33.1340989802683
208,1436620293635,29.3638405947329
209,1436620294337,28.1262823764233
210,1436620295001,24.8248365298305
211,1436620295748,37.3740979577838
212,1436620296471,26.559110985994
213,1436620297211,33.2418114187587
214,1436620297965,33.4623208172042
215,1436620298795,28.5369795435524
216,1436620299511,31.7233397487317
217,1436620300270,32.8623936993621
218,1436620301016,33.075784146773
219,1436620301728,30.5464619628822
220,1436620302466,31.1725024148677
221,1436620303176,26.5836121063719
222,1436620304953,34.6859290848159
223,1436620305684,33.3758886060513
224,1436620306406,36.5260355008383
225,1436620307147,29.2135157233745
226,1436620307871,28.8928186035192
227,1436620308580,30.5871536187037
228,1436620309335,26.5138532772389
229,1436620310085,33.2912887140143
230,1436620310805,30.3016135807382
231,1436620311553,29.2256383006728
232,1436620312280,29.9389524144391
233,1436620312962,25.744743095116
234,1436620313719,28.2627206672991
235,1436620314480,32.826427760799
236,1436620315221,27.7178585073203
237,1436620315928,27.3661605536201
238,1436620316652,28.0061610737111
239,1436620317365,24.6389901378424
240,1436620318094,35.2851779415666
241,1436620318808,24.4676204909661
242,1436620319543,21.872617699419
243,1436620320271,29.2320700345663
244,1436620320996,32.3467506668901
245,1436620321721,30.6849445451892
246,1436620322451,30.4906696458343
247,1436620323112,29.2313309397818
248,1436620323795,30.4929810490851
249,1436620324570,31.176036053726
250,1436620325272,23.5676225788288
251,1436620325933,29.4609179225075
252,1436620326638,25.089746111537
253,1436620327365,33.300875706323
254,1436620328115,25.5449268722249
255,1436620328889,21.5390137079082
256,1436620329503,23.440625634202
257,1436620330222,27.7410873967998
258,1436620330965,35.0635724698241
259,1436620331679,22.4208617606581
260,1436620332404,32.9142652171681
261,1436620333093,27.5475288914871
262,1436620333755,40.076021963266
263,1436620334520,20.9538325295073
264,1436620335243,24.5512796964592
265,1436620335941,22.8876069419543
266,1436620336674,30.1419175809127
267,1436620337400,32.0216076756297
268,1436620338133,21.9198206902253
269,1436620338856,28.9001967075713
270,1436620339593,31.9893008158362
271,1436620340333,23.8263018476218
272,1436620341044,30.816085088665
273,1436620341782,29.6747271163735
274,1436620342500,31.6620678446085
275,1436620343188,29.989437058072
276,1436620343861,23.4494380703737
277,1436620344610,25.4222156519812
278,1436620345342,29.5678581014491
279,1436620346064,20.5552084862899
280,1436620346801,31.3611973050087
281,1436620347540,26.4355749591147
282,1436620348294,27.1997848118705
283,1436620349021,25.5250242857024
284,1436620349764,23.4711674665301
285,1436620350487,31.2306705314617
286,1436620351227,22.941725953343
287,1436620351914,20.282612590771
288,1436620352632,25.3571434056171
289,1436620353335,30.2946234171259
290,1436620353975,37.1172893796493
291,1436620354684,27.3607036373718
292,1436620355439,22.4001539186151
293,1436620356181,25.747813366077
294,1436620356905,37.394562192673
295,1436620357641,39.6977219447671
296,1436620358374,24.177225411724
297,1436620359159,21.4014670472563
298,1436620359876,26.6939742758037
299,1436620360610,24.6109151547139
300,1436620361348,23.7663027233025
301,1436620362079,22.1245286021636
302,1436620362796,23.830223189302
303,1436620363519,40.6345918067756
304,1436620364286,23.5027339666618
305,1436620365010,24.2163477720086
306,1436620365747,21.6362530645819
307,1436620366516,28.3502766294028
308,1436620367206,28.9410866367535
309,1436620367945,33.971663169983
310,1436620368721,25.6340444638159
311,1436620369427,26.6550341876653
312,1436620370077,31.4381951710172
313,1436620370785,32.612922180619
314,1436620371526,26.0089137659193
315,1436620372273,33.184101508456
316,1436620373010,32.771905522971
317,1436620373780,33.4126291228374
318,1436620374477,26.4474088424605
319,1436620375240,30.9991120158351
320,1436620375965,23.2310795140571
321,1436620376682,22.6819517552237
322,1436620377370,23.0413631131457
323,1436620378090,26.9930649433778
324,1436620378827,35.5795652811114
325,1436620379573,19.6537038443587
326,1436620380303,21.5881415633838
327,1436620381036,25.2903225812159
328,1436620381746,30.0516367141858
329,1436620382465,24.1699968016585
330,1436620383211,27.9188535173522
331,1436620383964,35.3703635819932
332,1436620384635,30.9766278517962
333,1436620385359,24.0579081470759
334,1436620386084,69.0225559250187
335,1436620386774,25.8396528983357
336,1436620387388,23.9717233982608
337,1436620388066,24.9778828480981
338,1436620388878,74.1174763294844
339,1436620389682,32.5306753733473
340,1436620390334,36.0738346725534
341,1436620391053,29.3788209683373
342,1436620391766,35.8180155726591
343,1436620392491,27.8313448987763
344,1436620393215,70.690817360253
345,1436620394002,73.5561458284518
346,1436620394691,34.4229051697299
347,1436620395368,28.7179339073241
348,1436620396101,28.7198313352013
349,1436620396833,22.9869372890411
350,1436620397550,27.7432983873017
351,1436620398216,31.625867451207
352,1436620398964,25.4272702032763
353,1436620399684,40.0595028198175
354,1436620400416,29.9130643290236
355,1436620401154,65.2490585198471
356,1436620401874,76.9664139773254
357,1436620402610,57.9967301538032
358,1436620403344,25.7367481715498
359,1436620404087,27.5664242335251
360,1436620404809,38.6114699171401
361,1436620405487,36.3496409309197
362,1436620406218,56.8182223068763
363,1436620406929,42.1133081759211
364,1436620407674,38.4967852656997
365,1436620408361,73.0067781343387
366,1436620409079,64.3371327698775
367,1436620409807,75.4182749670272
368,1436620410528,37.1327368871274
369,1436620411251,63.8003951557485
370,1436620411987,41.2843795340496
371,1436620412726,37.0704900407312
372,1436620413458,75.6093444945781
373,1436620414188,44.5002080201563
374,1436620414910,35.0436672629951
375,1436620415580,75.9089550766538
376,1436620416308,73.8392514692122
377,1436620417040,52.584895345029
378,1436620417775,68.2423369036651
379,1436620418495,74.3448202964611
380,1436620419237,35.0673299439299
381,1436620419957,70.7330297932922
382,1436620420665,75.1026262744623
383,1436620421396,43.5892967973774
384,1436620422106,35.7984953231687
385,1436620422838,74.8580130786626
386,1436620423574,60.3326937554142
387,1436620424305,36.9114308006009
388,1436620425036,72.0176421361348
389,1436620425713,73.7649272666659
390,1436620426478,73.0938003166321
391,1436620427194,40.2103221649401
392,1436620427929,32.1058914922338
393,1436620428666,71.6404215962979
394,1436620429395,35.4958493898407
395,1436620430126,38.4105629022407
396,1436620430863,42.0996713197354
397,1436620431583,47.4237028090596
398,1436620432325,41.7440154162011
399,1436620433076,40.1842045831465
400,1436620433812,60.997664967408
401,1436620434546,75.4541123193556
402,1436620435225,74.8237669654584
403,1436620435883,71.6618081678354
404,1436620436618,41.0514816580205
405,1436620437341,38.2670437410315
406,1436620438070,33.6602328101019
407,1436620438789,31.6438533724093
408,1436620439520,51.5111283067855
409,1436620440252,58.4862602513898
410,1436620440964,75.7526938001634
411,1436620441601,64.8535065543471
412,1436620442294,50.6265925549844
413,1436620443034,75.8181223091352
414,1436620443774,78.1554750221951
415,1436620444536,46.7440324508422
416,1436620445260,27.5393113821201
417,1436620445978,77.5568843555163
418,1436620446713,56.4291026596966
419,1436620447465,77.892958444345
420,1436620448192,72.7065658877595
421,1436620448933,69.0803606798805
422,1436620449705,38.3326561856014
423,1436620450490,76.584848902541
424,1436620451150,70.3056070710335
425,1436620451894,75.2900176507622
426,1436620452624,64.4166294752206
427,1436620453353,60.764722649402
428,1436620454088,27.9180353017662
429,1436620454849,29.8941706146313
430,1436620455566,68.6730348952797
431,1436620456258,67.9235758960894
432,1436620456942,37.7365392287169
433,1436620457628,31.7618594290201
434,1436620459504,37.4182788013982
435,1436620460230,39.2790993099662
436,1436620460953,31.3438522892117
437,1436620461671,39.3688998229511
438,1436620462397,26.7312497127087
439,1436620463114,36.1666019238918
440,1436620463860,29.4212659706447
441,1436620464590,36.5753860552915
442,1436620465321,28.0693186290187
443,1436620466019,41.332898732752
444,1436620466679,42.1148127540395
445,1436620467423,29.2188496558748
446,1436620468144,30.7848203175538
447,1436620468873,35.6758612727024
448,1436620469651,28.3112913989257
449,1436620470344,29.2074439540842
450,1436620470984,28.4583568249278
451,1436620471681,63.8864319925816
452,1436620472413,43.3686473259191
453,1436620473146,45.0447303272756
454,1436620473886,33.1191284839523
455,1436620474626,36.861442660743
456,1436620475326,39.7211995316217
457,1436620477064,44.9276489801074
458,1436620477744,56.1389858532594
459,1436620478528,38.1280608388566
460,1436620479181,32.2909888478268
461,1436620479899,52.5969069967932
462,1436620480635,59.53684100062
463,1436620481361,75.0062825634225
464,1436620482092,42.7247866361554
465,1436620482800,30.241664789497
466,1436620483534,31.8047047421634
467,1436620484269,33.5299401327559
468,1436620485021,46.8668855349529
469,1436620485749,35.6496639194111
470,1436620486444,38.8607733516338
471,1436620487110,44.2285041128278
472,1436620487840,39.338221398128
473,1436620488599,38.8532922602642
474,1436620489320,44.6417884155391
475,1436620490054,38.5138221175902
476,1436620490757,43.0562045310307
477,1436620491451,73.7425219296335
478,1436620492185,53.1281880581692
479,1436620492934,30.3583879406146
480,1436620493643,70.9924127117848
481,1436620494366,55.2313259308099
482,1436620495085,48.960296157733
483,1436620495838,33.2291033612592
484,1436620496560,33.8029833616178
485,1436620497246,39.1343881907701
486,1436620497914,33.1614801960012
487,1436620498641,35.0080080088506
488,1436620499350,74.9310673847544
489,1436620499992,73.0347345147237
490,1436620500739,54.077857828079
491,1436620501467,41.0416119879847
492,1436620502180,47.3925180172736
493,1436620502915,76.4394284728553
494,1436620503688,75.041409805756
495,1436620504418,44.4191224878566
496,1436620505165,39.3288099526028
497,1436620505902,46.8677410812058
498,1436620506614,34.3823041588414
499,1436620508437,34.0533035715844
500,1436620509123,42.9204494720045
501,1436620509833,39.2582958243181
502,1436620510549,33.6355986260286
503,1436620511284,42.7042810194402
504,1436620511952,36.8598484654103
505,1436620512686,77.433367740021
506,1436620513400,50.3101447535675
507,1436620514140,47.1418121092049
508,1436620514896,76.014428143093
509,1436620515625,76.2802494289128
510,1436620516350,50.751772618024
511,1436620517082,75.8919780074574
512,1436620517773,39.5336054597999
513,1436620518471,73.4180545116796
514,1436620519223,37.4278951258752
515,1436620519868,33.2009708348669
516,1436620520562,43.599849724122
517,1436620521300,45.4367742870221
518,1436620522034,43.2279582668608
519,1436620522780,38.7027442690773
520,1436620523493,76.55584988244
521,1436620525264,61.0845798306003
522,1436620525939,36.6524576894359
523,1436620526666,46.5983411919558
524,1436620527357,39.6634973984479
525,1436620527999,53.284710759382
526,1436620528685,34.8860166077052
527,1436620529514,75.6904251598722
528,1436620530222,70.6173802110327
529,1436620530901,37.3078763005266
530,1436620531653,35.2951087370267
531,1436620532377,53.4285263476381
532,1436620533109,28.0223925975095
533,1436620533834,33.5839810389847
534,1436620534633,49.632041018355
535,1436620535375,26.871420044997
536,1436620536102,30.237578618625
537,1436620536844,36.8509849061394
538,1436620537557,29.9323144568041
539,1436620538239,76.3576188526204
540,1436620538950,46.4392444854637
541,1436620539678,46.8485950569189
542,1436620540397,44.8251459042583
543,1436620541040,32.9378075035887
544,1436620541729,37.8598956928568
545,1436620542462,37.9559076179758
546,1436620543184,33.264558975172
547,1436620543943,41.6649212080275
548,1436620544724,66.4993307728634
549,1436620545459,73.8707549788712
550,1436620546180,73.4110252723167
551,1436620546909,49.7378814835584
552,1436620547626,40.4903071002941
553,1436620548317,34.7388746561339
554,1436620549031,40.1240597398638
555,1436620549764,29.5339568025264
556,1436620550519,53.4711600792675
557,1436620551256,36.8585484841151
558,1436620551910,45.3620300993674
559,1436620552525,43.5532616100408
560,1436620553192,32.0647069686443
561,1436620553928,31.852362210325
562,1436620554732,36.7239222845291
563,1436620555515,55.5365835295154
564,1436620556261,47.4145628005078
565,1436620557005,36.8370094053517
566,1436620557716,38.8928291930419
567,1436620558353,33.8342073072611
568,1436620559038,32.5278578803212
569,1436620559710,32.9265772099286
570,1436620560476,47.4474068463465
571,1436620561148,36.4149498004544
572,1436620561901,71.6795450063154
573,1436620562653,35.2398905180753
574,1436620563376,32.9381200093835
575,1436620564171,32.8143990605386
576,1436620564897,34.6057671107076
