id,attr_time,attr_light
1,1436624160026,1669.0
2,1436624160045,1665.0
3,1436624160066,1665.0
4,1436624160088,1661.0
5,1436624160105,1659.0
6,1436624160126,1659.0
7,1436624160146,1661.0
8,1436624160168,1661.0
9,1436624160189,1659.0
10,1436624160207,1659.0
11,1436624160229,1656.0
12,1436624160247,1656.0
13,1436624160268,1655.0
14,1436624160289,1655.0
15,1436624160308,1653.0
16,1436624160329,1653.0
17,1436624160346,1651.0
18,1436624160368,1651.0
19,1436624160389,1648.0
20,1436624160408,1648.0
21,1436624160429,1647.0
22,1436624160448,1647.0
23,1436624160468,1647.0
24,1436624160488,1647.0
25,1436624160507,1647.0
26,1436624160529,1647.0
27,1436624160548,1647.0
28,1436624160570,1646.0
29,1436624160589,1646.0
30,1436624160605,1642.0
31,1436624160636,1642.0
32,1436624160652,1641.0
33,1436624160666,1641.0
34,1436624160686,1637.0
35,1436624160707,1637.0
36,1436624160728,1636.0
37,1436624160748,1636.0
38,1436624160766,1636.0
39,1436624160790,1636.0
40,1436624160808,1635.0
41,1436624160827,1635.0
42,1436624160848,1639.0
43,1436624160868,1639.0
44,1436624160886,1638.0
45,1436624160906,1638.0
46,1436624160929,1638.0
47,1436624160949,1637.0
48,1436624160969,1637.0
49,1436624160990,1638.0
50,1436624161009,1638.0
51,1436624161030,1641.0
52,1436624161046,1641.0
53,1436624161068,1640.0
54,1436624161090,1640.0
55,1436624161109,1642.0
56,1436624161129,1642.0
57,1436624161147,1642.0
58,1436624161170,1642.0
59,1436624161190,1641.0
60,1436624161210,1641.0
61,1436624161230,1638.0
62,1436624161250,1638.0
63,1436624161270,1636.0
64,1436624161286,1636.0
65,1436624161311,1632.0
66,1436624161408,1628.0
67,1436624161409,1628.0
68,1436624161413,1623.0
69,1436624161414,1623.0
70,1436624161415,1618.0
71,1436624161429,1618.0
72,1436624161446,1618.0
73,1436624161467,1618.0
74,1436624161487,1613.0
75,1436624161513,1613.0
76,1436624161528,1613.0
77,1436624161547,1613.0
78,1436624161567,1612.0
79,1436624161587,1612.0
80,1436624161610,1611.0
81,1436624161630,1611.0
82,1436624161650,1614.0
83,1436624161669,1614.0
84,1436624161690,1612.0
85,1436624161710,1608.0
86,1436624161730,1608.0
87,1436624161750,1606.0
88,1436624161770,1606.0
89,1436624161790,1605.0
90,1436624161810,1605.0
91,1436624161830,1607.0
92,1436624161849,1607.0
93,1436624161867,1609.0
94,1436624161889,1609.0
95,1436624161907,1614.0
96,1436624161927,1614.0
97,1436624161958,1619.0
98,1436624161971,1619.0
99,1436624161988,1621.0
100,1436624162008,1621.0
101,1436624162028,1624.0
102,1436624162049,1624.0
103,1436624162068,1630.0
104,1436624162121,1630.0
105,1436624162122,1631.0
106,1436624162137,1638.0
107,1436624162147,1638.0
108,1436624162170,1643.0
109,1436624162189,1643.0
110,1436624162220,1648.0
111,1436624162228,1648.0
112,1436624162249,1650.0
113,1436624162273,1650.0
114,1436624162288,1650.0
115,1436624162311,1650.0
116,1436624162327,1650.0
117,1436624162351,1650.0
118,1436624162371,1649.0
119,1436624162391,1649.0
120,1436624162411,1645.0
121,1436624162430,1645.0
122,1436624162451,1646.0
123,1436624162471,1646.0
124,1436624162490,1647.0
125,1436624162511,1646.0
126,1436624162531,1646.0
127,1436624162548,1649.0
128,1436624162569,1649.0
129,1436624162587,1651.0
130,1436624162613,1651.0
131,1436624162633,1651.0
132,1436624162654,1651.0
133,1436624162671,1650.0
134,1436624162688,1650.0
135,1436624162709,1649.0
136,1436624162729,1649.0
137,1436624162751,1648.0
138,1436624162768,1648.0
139,1436624162823,1645.0
140,1436624162835,1645.0
141,1436624162836,1645.0
142,1436624162848,1645.0
143,1436624162872,1645.0
144,1436624162890,1645.0
145,1436624162950,1646.0
146,1436624162951,1645.0
147,1436624162952,1645.0
148,1436624162978,1645.0
149,1436624162989,1645.0
150,1436624163011,1648.0
151,1436624163029,1648.0
152,1436624163051,1647.0
153,1436624163071,1647.0
154,1436624163091,1644.0
155,1436624163111,1644.0
156,1436624163131,1644.0
157,1436624163151,1644.0
158,1436624163171,1649.0
159,1436624163191,1649.0
160,1436624163208,1652.0
161,1436624163231,1652.0
162,1436624163250,1650.0
163,1436624163269,1650.0
164,1436624163289,1650.0
165,1436624163311,1650.0
166,1436624163331,1646.0
167,1436624163352,1648.0
168,1436624163372,1648.0
169,1436624163390,1650.0
170,1436624163411,1650.0
171,1436624163430,1651.0
172,1436624163450,1651.0
173,1436624163471,1650.0
174,1436624163539,1650.0
175,1436624163540,1650.0
176,1436624163541,1650.0
177,1436624163548,1653.0
178,1436624163572,1653.0
179,1436624163592,1654.0
180,1436624163639,1654.0
181,1436624163640,1655.0
182,1436624163661,1655.0
183,1436624163669,1656.0
184,1436624163692,1656.0
185,1436624163709,1658.0
186,1436624163729,1659.0
187,1436624163750,1659.0
188,1436624163770,1660.0
189,1436624163792,1660.0
190,1436624163813,1663.0
191,1436624163832,1663.0
192,1436624163852,1666.0
193,1436624163872,1666.0
194,1436624163892,1666.0
195,1436624163918,1666.0
196,1436624163932,1668.0
197,1436624163962,1668.0
198,1436624163972,1669.0
199,1436624163990,1669.0
200,1436624164012,1669.0
201,1436624164029,1669.0
202,1436624164050,1666.0
203,1436624164069,1666.0
204,1436624164095,1666.0
205,1436624164115,1666.0
206,1436624164135,1668.0
207,1436624164151,1666.0
208,1436624164171,1666.0
209,1436624164230,1668.0
210,1436624164241,1668.0
211,1436624164242,1667.0
212,1436624164251,1667.0
213,1436624164279,1666.0
214,1436624164299,1666.0
215,1436624164323,1664.0
216,1436624164330,1664.0
217,1436624164352,1661.0
218,1436624164371,1661.0
219,1436624164391,1661.0
220,1436624164414,1661.0
221,1436624164433,1658.0
222,1436624164453,1658.0
223,1436624164475,1657.0
224,1436624164491,1657.0
225,1436624164513,1653.0
226,1436624164533,1654.0
227,1436624164553,1654.0
228,1436624164573,1650.0
229,1436624164593,1650.0
230,1436624164611,1650.0
231,1436624164633,1650.0
232,1436624164653,1644.0
233,1436624164670,1644.0
234,1436624164690,1643.0
235,1436624164710,1643.0
236,1436624164735,1640.0
237,1436624164756,1640.0
238,1436624164778,1636.0
239,1436624164790,1636.0
240,1436624164811,1634.0
241,1436624164831,1634.0
242,1436624164851,1632.0
243,1436624164870,1632.0
244,1436624164976,1632.0
245,1436624164977,1632.0
246,1436624164978,1632.0
247,1436624164997,1632.0
248,1436624164998,1632.0
249,1436624164999,1633.0
250,1436624165022,1633.0
251,1436624165040,1632.0
252,1436624165050,1632.0
253,1436624165070,1630.0
254,1436624165101,1630.0
255,1436624165110,1630.0
256,1436624165131,1630.0
257,1436624165152,1630.0
258,1436624165175,1630.0
259,1436624165194,1631.0
260,1436624165213,1631.0
261,1436624165233,1633.0
262,1436624165254,1633.0
263,1436624165274,1633.0
264,1436624165294,1633.0
265,1436624165313,1631.0
266,1436624165334,1633.0
267,1436624165354,1633.0
268,1436624165373,1635.0
269,1436624165392,1635.0
270,1436624165413,1635.0
271,1436624165434,1635.0
272,1436624165454,1636.0
273,1436624165474,1636.0
274,1436624165492,1635.0
275,1436624165514,1635.0
276,1436624165534,1635.0
277,1436624165554,1635.0
278,1436624165574,1638.0
279,1436624165593,1638.0
280,1436624165611,1639.0
281,1436624165633,1639.0
282,1436624165652,1639.0
283,1436624165671,1639.0
284,1436624165740,1641.0
285,1436624165741,1641.0
286,1436624165742,1643.0
287,1436624165751,1644.0
288,1436624165771,1644.0
289,1436624165791,1646.0
290,1436624165811,1646.0
291,1436624165833,1645.0
292,1436624165851,1645.0
293,1436624165871,1647.0
294,1436624165894,1647.0
295,1436624165912,1650.0
296,1436624165935,1650.0
297,1436624165956,1650.0
298,1436624165973,1650.0
299,1436624165991,1649.0
300,1436624166013,1649.0
301,1436624166034,1646.0
302,1436624166054,1646.0
303,1436624166074,1646.0
304,1436624166094,1646.0
305,1436624166114,1647.0
306,1436624166132,1646.0
307,1436624166154,1646.0
308,1436624166174,1645.0
309,1436624166195,1645.0
310,1436624166214,1644.0
311,1436624166233,1644.0
312,1436624166254,1644.0
313,1436624166274,1644.0
314,1436624166294,1642.0
315,1436624166314,1642.0
316,1436624166333,1640.0
317,1436624166353,1640.0
318,1436624166373,1638.0
319,1436624166392,1638.0
320,1436624166414,1636.0
321,1436624166463,1636.0
322,1436624166464,1635.0
323,1436624166474,1635.0
324,1436624166491,1634.0
325,1436624166511,1634.0
326,1436624166532,1633.0
327,1436624166551,1631.0
328,1436624166572,1631.0
329,1436624166591,1629.0
330,1436624166614,1629.0
331,1436624166635,1630.0
332,1436624166652,1630.0
333,1436624166674,1630.0
334,1436624166695,1630.0
335,1436624166715,1630.0
336,1436624166734,1630.0
337,1436624166755,1629.0
338,1436624166775,1629.0
339,1436624166795,1631.0
340,1436624166812,1631.0
341,1436624166832,1634.0
342,1436624166852,1634.0
343,1436624166872,1637.0
344,1436624166894,1637.0
345,1436624166914,1642.0
346,1436624166934,1645.0
347,1436624166955,1645.0
348,1436624166974,1645.0
349,1436624166995,1645.0
350,1436624167015,1648.0
351,1436624167035,1648.0
352,1436624167055,1651.0
353,1436624167075,1651.0
354,1436624167092,1652.0
355,1436624167113,1652.0
356,1436624167132,1652.0
357,1436624167153,1652.0
358,1436624167172,1649.0
359,1436624167199,1649.0
360,1436624167212,1649.0
361,1436624167232,1649.0
362,1436624167252,1648.0
363,1436624167273,1648.0
364,1436624167292,1648.0
365,1436624167312,1648.0
366,1436624167332,1647.0
367,1436624167356,1646.0
368,1436624167375,1646.0
369,1436624167393,1645.0
370,1436624167415,1645.0
371,1436624167435,1646.0
372,1436624167454,1646.0
373,1436624167474,1643.0
374,1436624167494,1643.0
375,1436624167515,1641.0
376,1436624167534,1641.0
377,1436624167556,1642.0
378,1436624167576,1642.0
379,1436624167596,1640.0
380,1436624167614,1640.0
381,1436624167636,1643.0
382,1436624167656,1643.0
383,1436624167676,1644.0
384,1436624167696,1644.0
385,1436624167714,1640.0
386,1436624167734,1640.0
387,1436624167756,1636.0
388,1436624167776,1634.0
389,1436624167796,1634.0
390,1436624167816,1637.0
391,1436624167834,1637.0
392,1436624167855,1638.0
393,1436624167873,1638.0
394,1436624167895,1637.0
395,1436624168006,1637.0
396,1436624168007,1637.0
397,1436624168008,1637.0
398,1436624168009,1637.0
399,1436624168010,1637.0
400,1436624168017,1639.0
401,1436624168034,1639.0
402,1436624168053,1639.0
403,1436624168073,1639.0
404,1436624168094,1639.0
405,1436624168113,1639.0
406,1436624168136,1636.0
407,1436624168154,1636.0
408,1436624168176,1636.0
409,1436624168196,1637.0
410,1436624168216,1637.0
411,1436624168234,1636.0
412,1436624168256,1636.0
413,1436624168276,1633.0
414,1436624168296,1633.0
415,1436624168316,1634.0
416,1436624168334,1634.0
417,1436624168356,1638.0
418,1436624168374,1638.0
419,1436624168394,1638.0
420,1436624168416,1638.0
421,1436624168434,1638.0
422,1436624168454,1638.0
423,1436624168473,1641.0
424,1436624168494,1641.0
425,1436624168518,1641.0
426,1436624168534,1641.0
427,1436624168557,1639.0
428,1436624168574,1639.0
429,1436624168594,1639.0
430,1436624168647,1641.0
431,1436624168648,1641.0
432,1436624168717,1641.0
433,1436624168718,1641.0
434,1436624168719,1640.0
435,1436624168720,1640.0
436,1436624168737,1639.0
437,1436624168755,1639.0
438,1436624168774,1639.0
439,1436624168801,1639.0
440,1436624168814,1638.0
441,1436624168835,1638.0
442,1436624168859,1636.0
443,1436624168874,1636.0
444,1436624168897,1636.0
445,1436624168916,1636.0
446,1436624168934,1631.0
447,1436624168956,1628.0
448,1436624168983,1628.0
449,1436624168997,1631.0
450,1436624169014,1631.0
451,1436624169035,1629.0
452,1436624169054,1629.0
453,1436624169074,1629.0
454,1436624169096,1629.0
455,1436624169114,1630.0
456,1436624169135,1630.0
457,1436624169155,1630.0
458,1436624169174,1630.0
459,1436624169195,1630.0
460,1436624169214,1630.0
461,1436624169234,1629.0
462,1436624169254,1629.0
463,1436624169274,1629.0
464,1436624169294,1629.0
465,1436624169314,1630.0
466,1436624169337,1630.0
467,1436624169357,1632.0
468,1436624169374,1633.0
469,1436624169401,1633.0
470,1436624169416,1636.0
471,1436624169434,1636.0
472,1436624169455,1636.0
473,1436624169475,1636.0
474,1436624169494,1636.0
475,1436624169524,1636.0
476,1436624169534,1636.0
477,1436624169557,1636.0
478,1436624169578,1636.0
479,1436624169595,1636.0
480,1436624169615,1638.0
481,1436624169636,1638.0
482,1436624169657,1642.0
483,1436624169677,1642.0
484,1436624169697,1645.0
485,1436624169717,1645.0
486,1436624169737,1643.0
487,1436624169757,1643.0
488,1436624169775,1641.0
489,1436624169797,1642.0
490,1436624169822,1642.0
491,1436624169837,1643.0
492,1436624169858,1643.0
493,1436624169881,1643.0
494,1436624169903,1643.0
495,1436624169918,1644.0
496,1436624169938,1644.0
497,1436624169959,1642.0
498,1436624169976,1642.0
499,1436624170002,1642.0
500,1436624170017,1642.0
501,1436624170036,1640.0
502,1436624170056,1640.0
503,1436624170081,1640.0
504,1436624170150,1640.0
505,1436624170151,1638.0
506,1436624170152,1638.0
507,1436624170159,1635.0
508,1436624170178,1634.0
509,1436624170195,1634.0
510,1436624170215,1630.0
511,1436624170240,1630.0
512,1436624170255,1628.0
513,1436624170276,1628.0
514,1436624170296,1626.0
515,1436624170317,1626.0
516,1436624170337,1625.0
517,1436624170358,1625.0
518,1436624170378,1624.0
519,1436624170397,1624.0
520,1436624170418,1623.0
521,1436624170438,1623.0
522,1436624170458,1623.0
523,1436624170479,1623.0
524,1436624170497,1624.0
525,1436624170518,1624.0
526,1436624170543,1624.0
527,1436624170558,1624.0
528,1436624170579,1625.0
529,1436624170599,1624.0
530,1436624170618,1624.0
531,1436624170639,1623.0
532,1436624170657,1623.0
533,1436624170677,1625.0
534,1436624170697,1625.0
535,1436624170720,1625.0
536,1436624170738,1625.0
537,1436624170758,1622.0
538,1436624170777,1622.0
539,1436624170805,1622.0
540,1436624170860,1622.0
541,1436624170861,1623.0
542,1436624170862,1623.0
543,1436624170882,1623.0
544,1436624170896,1623.0
545,1436624170947,1624.0
546,1436624170948,1624.0
547,1436624171023,1624.0
548,1436624171024,1623.0
549,1436624171025,1623.0
550,1436624171026,1622.0
551,1436624171064,1622.0
552,1436624171065,1624.0
553,1436624171076,1624.0
554,1436624171096,1625.0
555,1436624171117,1625.0
556,1436624171137,1627.0
557,1436624171160,1627.0
558,1436624171179,1627.0
559,1436624171200,1627.0
560,1436624171220,1626.0
561,1436624171239,1626.0
562,1436624171259,1625.0
563,1436624171279,1625.0
564,1436624171300,1624.0
565,1436624171320,1624.0
566,1436624171340,1625.0
567,1436624171356,1625.0
568,1436624171380,1626.0
569,1436624171397,1625.0
570,1436624171418,1625.0
571,1436624171438,1625.0
572,1436624171459,1625.0
573,1436624171480,1626.0
574,1436624171507,1626.0
575,1436624171516,1626.0
576,1436624171536,1626.0
577,1436624171556,1625.0
578,1436624171576,1625.0
579,1436624171600,1625.0
580,1436624171617,1625.0
581,1436624171672,1629.0
582,1436624171673,1629.0
583,1436624171680,1630.0
584,1436624171696,1630.0
585,1436624171720,1631.0
586,1436624171737,1631.0
587,1436624171756,1631.0
588,1436624171777,1630.0
589,1436624171798,1630.0
590,1436624171818,1630.0
591,1436624171838,1630.0
592,1436624171857,1628.0
593,1436624171882,1628.0
594,1436624171900,1627.0
595,1436624171919,1627.0
596,1436624171940,1629.0
597,1436624171965,1629.0
598,1436624171980,1628.0
599,1436624171999,1628.0
600,1436624172020,1628.0
601,1436624172040,1628.0
602,1436624172060,1628.0
603,1436624172077,1628.0
604,1436624172100,1630.0
605,1436624172120,1630.0
606,1436624172137,1630.0
607,1436624172158,1630.0
608,1436624172180,1631.0
609,1436624172200,1633.0
610,1436624172221,1633.0
611,1436624172241,1634.0
612,1436624172258,1634.0
613,1436624172278,1637.0
614,1436624172298,1637.0
615,1436624172318,1637.0
616,1436624172340,1637.0
617,1436624172357,1638.0
618,1436624172412,1638.0
619,1436624172413,1640.0
620,1436624172428,1640.0
621,1436624172437,1639.0
622,1436624172484,1639.0
623,1436624172485,1640.0
624,1436624172514,1640.0
625,1436624172523,1640.0
626,1436624172537,1640.0
627,1436624172565,1640.0
628,1436624172577,1640.0
629,1436624172598,1641.0
630,1436624172617,1641.0
631,1436624172639,1641.0
632,1436624172660,1642.0
633,1436624172680,1642.0
634,1436624172700,1645.0
635,1436624172717,1645.0
636,1436624172741,1645.0
637,1436624172761,1645.0
638,1436624172781,1647.0
639,1436624172801,1647.0
640,1436624172821,1646.0
641,1436624172841,1646.0
642,1436624172859,1647.0
643,1436624172881,1647.0
644,1436624172902,1646.0
645,1436624172918,1646.0
646,1436624172939,1646.0
647,1436624172962,1646.0
648,1436624172982,1648.0
649,1436624173004,1647.0
650,1436624173021,1647.0
651,1436624173041,1646.0
652,1436624173061,1646.0
653,1436624173081,1645.0
654,1436624173100,1645.0
655,1436624173127,1644.0
656,1436624173203,1644.0
657,1436624173204,1643.0
658,1436624173205,1643.0
659,1436624173206,1642.0
660,1436624173279,1642.0
661,1436624173280,1641.0
662,1436624173281,1641.0
663,1436624173282,1641.0
664,1436624173298,1641.0
665,1436624173318,1642.0
666,1436624173338,1642.0
667,1436624173363,1643.0
668,1436624173399,1643.0
669,1436624173400,1640.0
670,1436624173421,1639.0
671,1436624173452,1639.0
672,1436624173458,1640.0
673,1436624173480,1640.0
674,1436624173501,1640.0
675,1436624173518,1640.0
676,1436624173538,1640.0
677,1436624173558,1640.0
678,1436624173578,1640.0
679,1436624173599,1640.0
680,1436624173618,1638.0
681,1436624173638,1638.0
682,1436624173658,1637.0
683,1436624173678,1637.0
684,1436624173698,1638.0
685,1436624173718,1638.0
686,1436624173739,1635.0
687,1436624173758,1635.0
688,1436624173778,1637.0
689,1436624173799,1637.0
690,1436624173821,1637.0
691,1436624173840,1635.0
692,1436624173859,1635.0
693,1436624173880,1635.0
694,1436624173899,1635.0
695,1436624173919,1635.0
696,1436624173938,1635.0
697,1436624173959,1635.0
698,1436624173978,1635.0
699,1436624174000,1636.0
700,1436624174019,1636.0
701,1436624174040,1634.0
702,1436624174059,1634.0
703,1436624174083,1634.0
704,1436624174103,1634.0
705,1436624174123,1635.0
706,1436624174142,1635.0
707,1436624174161,1636.0
708,1436624174183,1636.0
709,1436624174203,1637.0
710,1436624174223,1637.0
711,1436624174243,1637.0
712,1436624174260,1638.0
713,1436624174280,1638.0
714,1436624174301,1639.0
715,1436624174323,1639.0
716,1436624174340,1641.0
717,1436624174361,1641.0
718,1436624174396,1641.0
719,1436624174399,1641.0
720,1436624174419,1639.0
721,1436624174440,1639.0
722,1436624174463,1637.0
723,1436624174483,1637.0
724,1436624174500,1637.0
725,1436624174521,1637.0
726,1436624174541,1633.0
727,1436624174562,1633.0
728,1436624174597,1633.0
729,1436624174607,1630.0
730,1436624174620,1630.0
731,1436624174640,1629.0
732,1436624174662,1629.0
733,1436624174679,1629.0
734,1436624174700,1629.0
735,1436624174721,1630.0
736,1436624174740,1630.0
737,1436624174763,1629.0
738,1436624174783,1629.0
739,1436624174803,1627.0
740,1436624174820,1627.0
741,1436624174842,1627.0
742,1436624174863,1627.0
743,1436624174883,1626.0
744,1436624174901,1626.0
745,1436624174919,1626.0
746,1436624174941,1626.0
747,1436624174967,1628.0
748,1436624174981,1628.0
749,1436624175002,1628.0
750,1436624175030,1628.0
751,1436624175047,1628.0
752,1436624175081,1628.0
753,1436624175082,1628.0
754,1436624175101,1625.0
755,1436624175120,1625.0
756,1436624175140,1628.0
757,1436624175160,1628.0
758,1436624175180,1631.0
759,1436624175201,1631.0
760,1436624175220,1632.0
761,1436624175535,1632.0
762,1436624175536,1631.0
763,1436624175537,1631.0
764,1436624175538,1631.0
765,1436624175539,1631.0
766,1436624175540,1632.0
767,1436624175541,1632.0
768,1436624175542,1632.0
769,1436624175543,1632.0
770,1436624175544,1631.0
771,1436624175545,1630.0
772,1436624175546,1630.0
773,1436624175547,1634.0
774,1436624175548,1634.0
775,1436624175549,1636.0
776,1436624175550,1636.0
777,1436624175581,1636.0
778,1436624175582,1636.0
779,1436624175748,1634.0
780,1436624175749,1634.0
781,1436624175750,1631.0
782,1436624175751,1631.0
783,1436624175752,1629.0
784,1436624175753,1629.0
785,1436624175754,1626.0
786,1436624175755,1626.0
787,1436624175762,1624.0
788,1436624175782,1624.0
789,1436624175801,1624.0
790,1436624175821,1623.0
791,1436624175842,1623.0
792,1436624175861,1622.0
793,1436624175884,1622.0
794,1436624175904,1623.0
795,1436624175923,1623.0
796,1436624175941,1623.0
797,1436624175960,1623.0
798,1436624175980,1625.0
799,1436624176002,1625.0
800,1436624176020,1628.0
801,1436624176043,1628.0
802,1436624176061,1632.0
803,1436624176080,1632.0
