id,attr_time,attr_db
1,1436608596263,2.4395481815645
2,1436608596984,3.3020640374275
3,1436608597703,6.66676507276305
4,1436608598450,11.0040315044411
5,1436608599160,11.9639446874641
6,1436608599949,9.16266554544415
7,1436608600665,13.2065421993854
8,1436608601349,44.8582909733156
9,1436608602063,33.2766149934212
10,1436608602772,35.5111894821739
11,1436608603517,12.0812250085927
12,1436608604230,24.8312548456978
13,1436608604915,22.1180837306023
14,1436608605635,37.781439527279
15,1436608606399,38.3413302228199
16,1436608607115,38.028491112043
17,1436608607867,37.7334850739936
18,1436608608584,58.9150557843189
19,1436608609311,47.0345464643181
20,1436608610106,61.7555801836223
21,1436608610844,33.2133340703608
22,1436608611578,60.1618226078794
23,1436608612312,55.0614293613067
24,1436608613025,40.0590474795431
25,1436608613746,57.832179709929
26,1436608614512,55.9325203875136
27,1436608615304,52.3942057474615
28,1436608616037,54.8407178978305
29,1436608616765,43.9096675245054
30,1436608617545,27.1438695649077
31,1436608618274,40.7416348323271
32,1436608619001,37.6026748460707
33,1436608619720,47.5671114660798
34,1436608620463,13.1896696039726
35,1436608621124,51.570829238409
36,1436608621841,48.342587419281
37,1436608622601,16.8590992291313
38,1436608623320,60.5248017169852
39,1436608624066,49.388185717217
40,1436608624769,42.1479270944889
41,1436608625450,24.0513452103717
42,1436608626156,28.9202088245903
43,1436608626895,57.4123264186007
44,1436608627622,44.6806374865096
45,1436608628370,37.6861121793251
46,1436608629108,53.1876152526245
47,1436608629826,12.5149328322055
48,1436608630566,57.2792550425621
49,1436608631316,54.8401945634174
50,1436608632059,21.5049612567655
51,1436608632795,53.4449929544794
52,1436608633531,27.9796232011671
53,1436608634274,15.8987141807098
54,1436608634986,52.2435809126108
55,1436608635709,55.6901610827155
56,1436608636450,56.6497402213148
57,1436608637196,53.829013763764
58,1436608637913,46.6185586561303
59,1436608638629,66.8748489282444
60,1436608639363,56.205513402788
61,1436608640078,61.6836358555037
62,1436608640791,47.7100859148512
63,1436608641419,42.8794654279713
64,1436608642108,34.3005892697866
65,1436608642840,44.8050056783051
66,1436608643579,46.1240518328142
67,1436608644320,41.949661839697
68,1436608645071,52.4388607327669
69,1436608645734,44.8106882884014
70,1436608646483,33.217551763723
71,1436608647191,56.8588675247472
72,1436608647932,15.1418239831816
73,1436608648640,50.3305531328632
74,1436608649351,51.9404620594682
75,1436608650124,51.0809874170849
76,1436608650878,47.7994025108167
77,1436608651629,57.7307438343335
78,1436608652337,45.3472055360999
79,1436608653073,33.094725651054
80,1436608653783,37.077731661743
81,1436608654553,41.4889508254641
82,1436608655274,48.8706975814725
83,1436608656012,31.2404700848694
84,1436608656729,47.4359578480274
85,1436608657465,9.18081744360388
86,1436608658193,57.5576152177554
87,1436608658930,54.0051208664487
88,1436608659645,41.4060855639253
89,1436608660436,21.0851186961978
90,1436608661112,22.5880564932669
91,1436608661823,29.5105474540893
92,1436608662572,33.1105451064407
93,1436608663298,37.2428382551152
94,1436608664015,33.6292033259388
95,1436608664725,56.5294938205585
96,1436608665580,49.040414278682
97,1436608666260,37.0000943696561
98,1436608666974,49.7675050706491
99,1436608667693,66.4551773526057
100,1436608668428,36.4176358216438
101,1436608669149,23.8588084542823
102,1436608669863,29.7606797148515
103,1436608670686,43.6186789901142
104,1436608671418,45.6610502642046
105,1436608672132,53.1573677252223
106,1436608672850,45.5653521579332
107,1436608673605,26.1793445256838
108,1436608674326,36.3768760346771
109,1436608675054,42.4069992948837
110,1436608675862,10.7079776374347
111,1436608676620,8.3123463625699
112,1436608677361,36.6627456340455
113,1436608678084,17.124005598517
114,1436608678809,22.2554656288869
115,1436608679558,47.0081067289052
116,1436608680265,16.0325797025263
117,1436608680980,34.9043877641474
118,1436608681731,14.0495251734498
119,1436608682420,34.4746943486152
120,1436608683141,35.5449555423282
121,1436608683878,0.464465107435965
122,1436608684612,48.0531621029483
123,1436608685339,38.2677546858359
124,1436608686001,42.3767015100781
125,1436608686652,8.36107174665993
126,1436608687358,39.1464288947869
127,1436608688087,46.6979800228721
128,1436608688826,38.3309173814389
129,1436608689574,58.0433033032274
130,1436608690293,47.5298150416534
131,1436608691018,43.1412341875718
132,1436608691750,37.0010903275851
133,1436608692458,32.625711881752
134,1436608693198,43.2993776094698
135,1436608693926,33.2104104361313
136,1436608694656,18.4930587450741
137,1436608695383,20.9559777684195
138,1436608696106,35.0707943728603
139,1436608696839,40.4477920830307
140,1436608697585,52.1640863547611
141,1436608698305,46.7157463868686
142,1436608699016,15.7452005818577
143,1436608699750,7.65444469841436
144,1436608700525,3.63666260715684
145,1436608701242,30.8428507359111
146,1436608701942,14.9831192088996
147,1436608703376,40.0325948651798
148,1436608704069,58.019510696445
149,1436608704801,56.2658751775999
150,1436608705524,41.4549260830282
151,1436608706197,23.7068030754747
152,1436608706921,19.1176352892044
153,1436608707645,20.5627436134347
154,1436608709385,38.0057910780023
155,1436608710068,14.8606767151355
156,1436608710830,16.0009302789892
157,1436608711580,43.9201011459921
158,1436608712232,33.7880042684288
159,1436608712922,40.6042302788115
160,1436608713594,44.9702955629203
161,1436608714363,57.7205195190467
162,1436608715026,52.9330798641871
163,1436608716294,39.4347090290338
164,1436608717023,42.4929172353828
165,1436608717762,47.4222881325326
166,1436608718507,39.7224104511306
167,1436608719237,36.9792380093505
168,1436608720988,34.195909285516
169,1436608721639,10.6746753702094
170,1436608722276,14.652776164194
171,1436608722942,11.4431486477348
172,1436608723655,15.8537268438375
173,1436608724396,7.94368854312691
174,1436608725149,47.2137429728647
175,1436608725847,2.21347937365553
176,1436608726527,2.19065179247934
177,1436608727267,6.21719344191444
178,1436608727956,12.7646638373801
179,1436608728605,16.5039442806088
180,1436608729304,48.7679725758568
181,1436608730112,59.1594446299917
182,1436608730850,19.6090498815534
183,1436608731585,45.9561629470484
184,1436608732310,56.4355699620735
185,1436608733019,58.3789203704062
186,1436608733745,42.7868132229093
187,1436608734503,44.8243644836488
188,1436608735210,38.4986233999786
189,1436608735936,37.6737066918848
190,1436608736668,42.3087113013365
191,1436608737377,62.1384703735179
192,1436608738096,40.3738367237477
193,1436608738832,46.676750202846
194,1436608739577,52.029934728391
195,1436608740301,47.5034703085792
196,1436608741023,28.3686965414608
197,1436608741742,14.7255559409055
198,1436608742419,4.46951883861608
199,1436608743119,33.056690090383
200,1436608743852,27.0329737671165
201,1436608744591,32.910706615533
202,1436608745323,39.8124144873283
203,1436608746035,30.179843513779
204,1436608746764,30.7947131028977
205,1436608747424,28.4188600433206
206,1436608748143,10.2906679887279
207,1436608748886,43.8932901437872
208,1436608749630,45.2524118049554
209,1436608750355,45.8292673606728
210,1436608751110,41.2528183494583
211,1436608751865,69.2881086900316
212,1436608752596,33.0675894530115
213,1436608753300,18.6727393002228
214,1436608753992,29.525779566607
215,1436608754659,37.507870254623
216,1436608755389,45.6040158487366
217,1436608756120,41.3681668851548
218,1436608756873,19.1092851122908
219,1436608757612,42.8205506193993
220,1436608758355,28.6281849139123
221,1436608759047,45.6511328920212
222,1436608759725,30.6801349045533
223,1436608760448,55.8641521547523
224,1436608761186,47.3726311035174
225,1436608761919,44.1684734344473
226,1436608762666,44.2518498227014
227,1436608763420,50.9844016747438
228,1436608764115,20.7625737594983
229,1436608764841,6.68489805791662
230,1436608765583,31.1537017806053
231,1436608766294,40.1364682930437
232,1436608767008,28.0799157512001
233,1436608767718,40.2128396588021
234,1436608768483,13.422169239736
235,1436608769205,46.1190746416806
236,1436608769936,34.1706347960515
237,1436608770654,23.5344432876311
238,1436608771379,37.0942859919907
239,1436608772141,22.1374085017607
240,1436608772873,44.7236086009048
241,1436608773613,32.5368156898325
242,1436608774344,19.6787066413562
243,1436608775051,26.3480313511584
244,1436608775767,17.4246777080344
245,1436608776520,49.7628964376095
246,1436608777249,12.2498966554708
247,1436608777978,1.5654979178705
248,1436608778711,1.70528029794061
249,1436608779439,0.0538415021692703
250,1436608780151,6.37560856446884
251,1436608780895,34.4339058502164
252,1436608781637,52.0873296013316
253,1436608782360,42.7091229599829
254,1436608783066,48.8703004993712
255,1436608783804,36.9533812193893
256,1436608784567,40.3389720104681
257,1436608785348,24.7955087752775
258,1436608786092,66.5700918646243
259,1436608786790,29.6878922782268
260,1436608787491,62.6522206841297
261,1436608788203,56.3537603306631
262,1436608788946,49.3145935484208
263,1436608789676,38.1687226839791
264,1436608790495,56.8717447852693
265,1436608791200,8.65743363331225
266,1436608791925,51.3592196844593
267,1436608792653,55.2856636096318
268,1436608793376,48.287606107983
269,1436608794098,43.9210164875789
270,1436608794856,57.3628664019653
271,1436608795583,51.001194611674
272,1436608796248,61.276187742986
273,1436608796958,49.6693368202155
274,1436608797687,56.7654383171693
275,1436608798417,55.4981470836887
276,1436608799152,38.7245322358699
277,1436608799944,50.8442770825737
278,1436608800683,51.4935884713813
279,1436608801430,47.3682936398313
280,1436608802211,31.5823315899887
281,1436608802937,64.2405835542644
282,1436608803519,57.3110579915682
283,1436608804201,14.0199055502517
284,1436608804986,50.4128991803782
285,1436608805713,47.9403492294566
286,1436608806266,35.2585346216021
287,1436608806810,49.0485997976653
288,1436608807371,52.268292486551
289,1436608807963,24.7899254664581
290,1436608808618,32.2080248828696
291,1436608809375,46.6122737741964
292,1436608810083,41.64424993098
293,1436608810653,26.2024835271118
294,1436608811218,37.87829063232
295,1436608811787,43.377887593655
296,1436608812366,66.3962814238798
297,1436608813766,43.403426279813
298,1436608814506,43.167836866333
299,1436608815287,48.9759439640615
300,1436608816022,40.1517921600347
301,1436608816712,33.2588599316639
302,1436608817290,17.3281603894942
303,1436608817860,21.0761916244004
304,1436608818423,43.1900381552086
305,1436608819025,36.2644528340051
306,1436608819721,44.5208688286124
307,1436608820346,34.2092061966032
308,1436608820913,30.1792962555411
309,1436608821461,42.5526913870099
310,1436608822012,45.5777375664028
311,1436608822560,44.3829781764079
312,1436608823935,44.8335980507323
313,1436608824672,46.2316002422486
314,1436608825424,38.8312862519415
315,1436608826138,47.1052905100345
316,1436608826875,35.927051467485
317,1436608827645,48.6227362626958
318,1436608828202,41.3227398642931
319,1436608828768,62.9865470385894
320,1436608829336,56.6063898021715
321,1436608829923,48.1342587218115
322,1436608830647,42.8664859427888
323,1436608831353,38.1618338729734
324,1436608832114,40.2578006746449
325,1436608832825,43.2614586987319
326,1436608833407,17.3448850403384
327,1436608833984,12.419300566457
328,1436608834552,37.380725374949
329,1436608835107,48.7104437508524
330,1436608837010,66.3240532131467
331,1436608837690,47.826497897834
332,1436608838411,55.6141425248013
333,1436608839130,45.082446320785
334,1436608839852,44.4424442935124
335,1436608840653,28.6643139386384
336,1436608841320,56.3563540628268
337,1436608841922,9.2343021547066
338,1436608842632,1.08459562314124
339,1436608843344,58.2026599096793
340,1436608844074,51.9446775415875
341,1436608844787,8.16828761335365
342,1436608845567,64.2429788234572
343,1436608846281,42.8653223102397
344,1436608847000,38.6455160375782
345,1436608847700,11.6595710351715
346,1436608848361,60.3601715941247
347,1436608849085,39.3642455840694
348,1436608849792,8.8322676944118
349,1436608850537,59.0264482950865
350,1436608851262,50.1697481442638
351,1436608851994,37.8950866808705
352,1436608852724,54.4423742890267
353,1436608853460,55.4571610976615
354,1436608854193,56.5283636947008
355,1436608854929,56.9167816304763
356,1436608855725,22.7414164938527
357,1436608856370,44.3930549171334
358,1436608856988,45.4559315990371
359,1436608857709,40.2874768307754
360,1436608858455,30.4217118639872
361,1436608859192,35.0898276437018
362,1436608859911,46.1386472233674
363,1436608860651,44.4754576861786
364,1436608861390,37.1046519763462
365,1436608862131,40.3351069586901
366,1436608862929,13.160195057586
367,1436608863700,54.1985831888901
368,1436608864340,41.2177746786476
369,1436608865054,62.58036858426
370,1436608865855,33.6572375938623
371,1436608866597,15.8001424537402
372,1436608867320,53.5986343895135
373,1436608868011,34.9281077148472
374,1436608868700,38.3180153338355
375,1436608869443,59.4367739294669
376,1436608870148,29.1866006490725
377,1436608870942,61.0455144946374
378,1436608871664,36.6336570924319
379,1436608872400,3.35312561439458
380,1436608873135,44.2386317224949
381,1436608873866,46.149201223975
382,1436608874612,37.0850805715858
383,1436608875332,2.23986376343248
384,1436608876049,36.2212513983826
385,1436608876777,45.0799830737151
386,1436608877526,35.7497270455004
387,1436608878265,59.9944248450108
388,1436608878981,45.7933107912906
389,1436608879706,58.035566446259
390,1436608880451,35.7594562994451
391,1436608881169,65.2134489269963
392,1436608881902,5.00226691494756
393,1436608882653,33.3785080462978
394,1436608883361,38.3392454407649
395,1436608884071,46.5731424816153
396,1436608884733,6.66701864206456
397,1436608885385,66.8602670137757
398,1436608886105,54.9241683336649
399,1436608886830,61.9843949218248
400,1436608887462,59.3758671519311
401,1436608888123,58.4648704984843
402,1436608888808,47.8228390969072
403,1436608889538,37.9685574706072
404,1436608890259,40.261403142769
405,1436608890950,42.8715018920146
406,1436608891664,42.6760297375143
407,1436608892381,32.3304559327254
408,1436608893096,59.3917588878142
409,1436608893828,63.0932545358099
410,1436608894584,62.6673011353858
411,1436608895307,56.608494870022
412,1436608896017,65.5303232352658
413,1436608896739,60.7626284251316
414,1436608897507,18.3726118043702
415,1436608898236,58.3031754889052
416,1436608898958,44.7705283834859
417,1436608899678,53.4694319658725
418,1436608900412,55.5117269899725
419,1436608901132,60.3576230392451
420,1436608901864,58.0411125272192
421,1436608902597,38.9610991324815
422,1436608903310,45.2035836541716
423,1436608903990,38.9584573254868
424,1436608904660,62.0486996280473
425,1436608905363,30.2989572470567
426,1436608906032,65.8883499379885
427,1436608907659,40.98594860997
428,1436608908272,11.697737560317
429,1436608908993,52.8688793445457
430,1436608909707,49.8477860009309
431,1436608910423,54.6882636221172
432,1436608911143,43.3775549152274
433,1436608911878,26.998121900251
434,1436608912602,22.6905931635746
435,1436608913324,31.7234434821829
436,1436608914036,33.1964855590172
437,1436608914743,46.667850411733
438,1436608915495,40.8944692621513
439,1436608916187,42.3681981679128
440,1436608917677,33.1891245902471
441,1436608918393,17.9997524540981
442,1436608919116,37.7516554155403
443,1436608919862,47.1704613719282
444,1436608920591,40.4481207759843
445,1436608921289,22.8492808142892
446,1436608921984,2.70758493613157
447,1436608922685,3.25027446235513
448,1436608923411,40.4168813418507
449,1436608924119,41.6137010460526
450,1436608924827,59.4351233156724
451,1436608925518,33.857847560228
452,1436608926210,31.7379010411971
453,1436608926935,32.0677518513675
454,1436608927666,60.118952843429
455,1436608928406,44.811328425202
456,1436608929115,15.5948317991323
457,1436608929797,29.4097119454821
458,1436608930536,21.4215389799025
459,1436608931210,12.7203091834626
460,1436608932925,31.7767277791769
461,1436608933663,39.3364585158612
462,1436608934366,58.8091985003552
463,1436608935099,55.2073972750777
464,1436608935815,33.0524091903626
465,1436608936581,58.6686370260381
466,1436608937311,56.1609185335608
467,1436608938036,52.3262556327876
468,1436608938754,45.3802726980118
469,1436608939502,40.1784178955671
470,1436608941080,49.8049013394994
471,1436608941746,34.2072490553032
472,1436608942489,38.9571311653891
473,1436608943200,10.5103892153267
474,1436608943934,35.04175687628
475,1436608944705,33.4254709929845
476,1436608945353,55.1335673991115
477,1436608946043,42.4927217946537
478,1436608946770,27.4492373266406
479,1436608947515,42.6201141091635
480,1436608948221,56.5448442452792
481,1436608948933,18.3402109567046
482,1436608949606,42.6879668863824
483,1436608950410,44.3245495164369
484,1436608951143,25.5562291133745
485,1436608951869,29.643737676554
486,1436608952621,53.0231075446247
487,1436608953340,52.7156163495584
488,1436608954080,31.3426084275379
489,1436608954804,47.2691021650336
490,1436608955555,29.0824415718022
491,1436608956282,32.7485134309255
492,1436608956981,36.1350471715113
493,1436608957718,36.6924456135266
494,1436608958506,68.1538083267516
495,1436608959252,66.1355429631595
496,1436608959826,62.5950679780215
497,1436608960406,38.2207855198074
498,1436608960955,52.7735594629056
499,1436608961550,53.2527268843279
500,1436608962236,56.5838546872141
501,1436608963012,45.1239405079453
502,1436608963750,32.2341491628901
503,1436608964318,51.3571752101095
504,1436608964911,8.15867806711458
505,1436608965504,44.6650473513228
506,1436608967157,46.424816308591
507,1436608967840,39.2559616099361
508,1436608968579,50.0006135819605
509,1436608969235,44.0576530079434
510,1436608969824,41.1714563207203
511,1436608970394,34.3814807280202
512,1436608970940,48.9281052251767
513,1436608971515,42.2847999938611
514,1436608972169,25.7718824103002
515,1436608972887,45.697813705317
516,1436608973638,42.2875501761645
517,1436608974304,39.1070880291523
518,1436608974878,49.2526559098383
519,1436608975430,12.5166429752207
520,1436608975999,38.0502344311206
521,1436608977519,60.7211138081932
522,1436608978186,58.3840497507211
523,1436608978909,57.2795540239375
524,1436608979665,44.6775590937891
525,1436608980315,25.4658877846205
526,1436608980877,49.3031491057235
527,1436608981429,45.5323976290163
528,1436608981973,46.6131673719071
529,1436608982562,30.9613694378714
530,1436608983230,40.093153686413
531,1436608983975,44.2765047860931
532,1436608984688,50.7799561348614
533,1436608985257,70.6379419469291
534,1436608985845,67.2656168753594
535,1436608986434,56.7079773432264
536,1436608987013,59.0795393197061
537,1436608988256,45.5408880267436
538,1436608988975,58.2423060256427
539,1436608989609,46.5139622950873
540,1436608990349,55.7137577281609
541,1436608991066,52.6628868977613
542,1436608991794,54.8706241042877
543,1436608992550,60.4634024612921
544,1436608993281,47.096110380292
545,1436608993996,29.0982448739973
546,1436608994701,58.4574201019657
547,1436608995459,36.7617987899751
548,1436608996176,52.6421427917391
549,1436608996907,43.5978675190151
550,1436608997644,53.2411548286963
551,1436608998376,25.671618026094
552,1436608999094,47.2274670078045
553,1436608999850,60.0124581236953
554,1436609000654,47.717206345483
555,1436609001392,59.2887186138158
556,1436609002117,40.5368316917276
557,1436609002871,59.1104523148964
558,1436609003611,40.9549129244731
559,1436609004345,46.8542553620303
560,1436609005112,44.7378083635842
561,1436609005842,37.1730820278053
562,1436609006577,15.7626716716741
563,1436609007301,53.9853985549705
564,1436609008035,66.0345652701178
565,1436609008776,65.8257706229483
566,1436609009402,60.1830281249852
567,1436609010138,64.7812355230815
568,1436609010879,57.1434935509794
569,1436609011639,46.6835163047231
570,1436609012347,50.5011996144681
571,1436609013078,69.4126552020741
572,1436609013810,53.6716945734738
573,1436609014564,56.3041713929293
574,1436609015289,50.5935237380062
575,1436609015991,59.1974006180785
