id,attr_time,attr_db
1,1436608596332,5.97438293539592
2,1436608597064,6.98835702911311
3,1436608597783,10.8263232963593
4,1436608598504,8.63503768715773
5,1436608599229,21.7747213524273
6,1436608599977,7.16071364555065
7,1436608600739,9.22250067240458
8,1436608601470,37.7516023101404
9,1436608602189,48.8612018128703
10,1436608602933,42.2548243422264
11,1436608603758,37.4528503903026
12,1436608604492,29.5476340444999
13,1436608605227,30.1876705299658
14,1436608605944,34.6403934627733
15,1436608606620,37.978150497479
16,1436608607199,37.2386880050134
17,1436608607874,39.9450803010174
18,1436608608609,57.3539862684745
19,1436608609350,43.09370847311
20,1436608610119,49.1630290693607
21,1436608610860,20.278870431442
22,1436608611576,53.3557116998899
23,1436608612323,47.2263418379511
24,1436608613060,26.6004790680994
25,1436608613852,37.5572635553832
26,1436608614578,45.401341244464
27,1436608615299,40.9952991166345
28,1436608616035,44.4188191602563
29,1436608616792,36.303249232328
30,1436608617509,45.3432347346899
31,1436608618218,43.5684966813946
32,1436608619014,37.4882238107537
33,1436608619743,42.1340675413278
34,1436608620469,36.2547453328393
35,1436608621186,41.9377369072842
36,1436608621916,41.5376436089775
37,1436608622681,44.0209339827146
38,1436608623403,59.4673623434441
39,1436608624141,32.2846842867048
40,1436608624848,44.180253611294
41,1436608625576,28.8928296836308
42,1436608626281,42.9819383228304
43,1436608626904,48.5830488409888
44,1436608627595,35.0801115095241
45,1436608628336,26.7778408797556
46,1436608629138,42.6760718431867
47,1436608629860,13.051976016302
48,1436608630631,42.9186010132138
49,1436608631337,42.6247865768601
50,1436608632070,23.3548358700076
51,1436608632802,49.5182120700467
52,1436608633538,23.4748277471584
53,1436608634270,23.2325300442573
54,1436608635006,43.259288769514
55,1436608635769,36.900755677925
56,1436608636490,49.1000420147263
57,1436608637200,39.041731340787
58,1436608637925,43.145920609432
59,1436608638669,48.4337933954695
60,1436608639383,45.5976065399983
61,1436608640107,51.7543977909914
62,1436608640830,40.929926587395
63,1436608641541,42.6689334824186
64,1436608642293,44.1326730035337
65,1436608643017,43.2939082980285
66,1436608643767,42.2265442612025
67,1436608644502,35.699357921683
68,1436608645243,36.208638006982
69,1436608645954,40.022503321555
70,1436608646706,47.7010822121992
71,1436608647442,46.8296927783417
72,1436608648184,35.5901178891601
73,1436608648935,41.4982253391541
74,1436608649647,43.9704829318463
75,1436608650399,42.817106443789
76,1436608651055,42.738733177045
77,1436608651760,39.843869662144
78,1436608652483,30.1052809826305
79,1436608653216,32.2615636430989
80,1436608653938,35.3673120226109
81,1436608654679,40.6957266446271
82,1436608655428,44.5939112490401
83,1436608656198,46.0397870144514
84,1436608656840,38.1863884916916
85,1436608657566,28.3228693546346
86,1436608658293,41.0058937811586
87,1436608659075,42.0929310732361
88,1436608659791,33.4842166337062
89,1436608660528,37.5533661550024
90,1436608661249,49.2259511661661
91,1436608661994,32.9601554008919
92,1436608662735,26.561764641613
93,1436608663540,40.4999811811086
94,1436608664269,46.8837090117898
95,1436608664994,40.4064712134695
96,1436608665740,36.411868763895
97,1436608666455,36.1342490000652
98,1436608667099,46.8276344752958
99,1436608668334,37.1303806008464
100,1436608669055,36.2645058270328
101,1436608669795,23.2397079184525
102,1436608670510,38.1829407960099
103,1436608671223,38.47625374958
104,1436608671958,40.798953543881
105,1436608672695,46.4552595692683
106,1436608673426,19.2223524309684
107,1436608674179,34.757318839706
108,1436608674851,30.3697714731607
109,1436608676198,48.1546942549358
110,1436608676900,48.740333040946
111,1436608677652,39.8144802580978
112,1436608678456,43.4352017774899
113,1436608679184,37.1792566304522
114,1436608679918,37.4109704789155
115,1436608680687,37.4839195299575
116,1436608681388,27.1734282360757
117,1436608683190,38.2297731381863
118,1436608683886,30.7353762313107
119,1436608684630,41.2080069595956
120,1436608685330,37.7814802462477
121,1436608686071,47.2317846279826
122,1436608686834,35.8013795929561
123,1436608688239,30.9843906708507
124,1436608688883,36.9552207306074
125,1436608689602,54.9379563891314
126,1436608690359,39.7309782863944
127,1436608691080,46.9889139589962
128,1436608691745,36.8656907461981
129,1436608692464,35.7566607746238
130,1436608693198,39.8540641541457
131,1436608693944,26.641093440896
132,1436608694709,34.1385346719886
133,1436608695426,16.8143352801133
134,1436608696144,45.038145700938
135,1436608696878,35.1533181036466
136,1436608697618,46.6628386900599
137,1436608698339,39.6575908089448
138,1436608699081,35.0590292459515
139,1436608699806,15.3655518399854
140,1436608700542,7.8116462957472
141,1436608701232,27.227388996812
142,1436608701948,13.263561271307
143,1436608702687,46.8069764024736
144,1436608703452,26.6229578792247
145,1436608704190,56.8681392227934
146,1436608704930,45.4209150728469
147,1436608705671,16.4225576997669
148,1436608706409,33.6410789285065
149,1436608707189,35.2750866580924
150,1436608707848,32.340634108339
151,1436608708503,29.6408883490235
152,1436608709226,43.7231247607462
153,1436608709946,22.1071084991952
154,1436608710698,34.5190295495591
155,1436608711445,42.3159712461145
156,1436608712179,37.6883825894442
157,1436608712918,40.7032604567285
158,1436608713685,39.5604219504293
159,1436608714417,56.566971493252
160,1436608715140,47.0442496936153
161,1436608715857,41.8269457114142
162,1436608716603,40.5139066816986
163,1436608717341,49.236535576889
164,1436608718075,47.6277576290188
165,1436608718825,43.8022515727054
166,1436608719593,43.5992912551598
167,1436608720316,36.9978552233961
168,1436608721014,38.3986849047536
169,1436608721741,38.9092680717444
170,1436608722470,33.0355894831414
171,1436608723210,35.7841361422309
172,1436608723941,32.8546412417984
173,1436608724734,44.5797625432795
174,1436608725463,35.7119466537039
175,1436608726188,30.8277614210837
176,1436608726920,34.9645958445738
177,1436608727701,38.2306411148805
178,1436608728406,18.4591247557119
179,1436608729144,39.4670309359981
180,1436608729877,37.1363753531663
181,1436608730623,42.8816724008261
182,1436608731340,29.7956284890481
183,1436608732066,51.0399846544817
184,1436608732766,57.3331008566882
185,1436608733499,46.7893542947581
186,1436608734165,44.1652464703863
187,1436608734900,31.7194652119082
188,1436608735665,42.4653263398268
189,1436608736397,44.432205635028
190,1436608737127,50.8649399739022
191,1436608737865,39.8840976237072
192,1436608738669,41.0987317655703
193,1436608739399,57.6350881688647
194,1436608740127,44.3753933057848
195,1436608740845,32.6738436617068
196,1436608741587,30.147951164251
197,1436608742322,35.3580916944427
198,1436608743039,41.3141280653245
199,1436608743785,25.7800717866206
200,1436608744514,34.6822152356989
201,1436608745229,34.9249565797264
202,1436608745947,36.5968567645174
203,1436608746728,42.3947754554286
204,1436608747432,26.1654660986851
205,1436608748162,25.6801573469524
206,1436608748809,36.8584125684659
207,1436608749540,42.6886326247665
208,1436608750258,47.6243960415452
209,1436608750966,44.4324862774215
210,1436608751721,42.0918346618882
211,1436608752453,27.7200498218865
212,1436608753154,38.5917092947438
213,1436608753884,38.2801958857627
214,1436608754626,36.1251053900927
215,1436608755336,37.9738415294654
216,1436608756061,39.7595257391562
217,1436608756805,29.6501421403156
218,1436608757532,42.9927966704848
219,1436608758269,36.4774394063789
220,1436608759030,41.7074286051677
221,1436608759785,31.4407030729442
222,1436608760499,41.5817062796106
223,1436608761233,48.6748530465185
224,1436608761932,35.656149237807
225,1436608762609,41.9995586390206
226,1436608763347,44.2471578249436
227,1436608764013,27.2166314794472
228,1436608764741,34.3240609711869
229,1436608765393,35.3043944505433
230,1436608766122,38.4024745129029
231,1436608766850,38.7268473278578
232,1436608767589,37.8293684399015
233,1436608768314,38.8180299133754
234,1436608769068,35.8364082768195
235,1436608769786,35.5904547529844
236,1436608770520,46.898935784752
237,1436608771246,35.7572008546828
238,1436608771956,19.9087198943644
239,1436608772693,36.2954982043097
240,1436608773422,41.3170590392393
241,1436608774138,33.4729987850693
242,1436608774876,33.2204961384484
243,1436608775559,11.3341182115679
244,1436608776296,9.03808778961025
245,1436608777016,13.9933068995764
246,1436608777828,30.9388159620011
247,1436608778563,24.2056486251277
248,1436608779302,36.1903267441142
249,1436608780063,34.3334884554914
250,1436608780811,32.9477879502276
251,1436608781547,42.6985637222571
252,1436608782271,44.1177454638764
253,1436608783018,39.2768309205193
254,1436608783766,38.9633814956718
255,1436608784489,36.2053171968186
256,1436608785196,47.8663650341897
257,1436608785929,53.557410429264
258,1436608786677,26.236777127717
259,1436608787407,46.688526038808
260,1436608788135,41.342591268057
261,1436608788833,31.0356166329454
262,1436608789585,32.9344201343896
263,1436608790296,47.4199930614116
264,1436608791023,31.5715285056678
265,1436608791779,48.1531210817572
266,1436608792464,47.200091137789
267,1436608793127,31.3021832777878
268,1436608793846,57.079826155122
269,1436608794577,35.0164273894806
270,1436608795303,48.4548550300303
271,1436608796047,31.8706580809407
272,1436608796778,40.8143491050466
273,1436608797515,39.5243383357574
274,1436608798241,39.5333423909311
275,1436608798988,49.7773222540845
276,1436608799742,38.5932464795268
277,1436608800435,34.0446345611277
278,1436608801115,36.9909057368051
279,1436608801833,31.7592183820139
280,1436608802574,31.4720563790767
281,1436608803310,48.0577239253476
282,1436608804083,23.2584553809047
283,1436608804828,37.3065540429376
284,1436608805545,30.1668880465772
285,1436608806253,31.3626784849367
286,1436608806975,44.2300255262551
287,1436608807715,43.5557742675389
288,1436608808419,41.2757015169854
289,1436608809023,47.9732603810369
290,1436608809708,37.5971247340801
291,1436608810429,41.0532653013098
292,1436608811151,46.3009207255528
293,1436608811872,50.23887305937
294,1436608812581,71.9637201940551
295,1436608813271,57.7927816880959
296,1436608814045,47.3932554836687
297,1436608814788,43.6631991388548
298,1436608815516,42.1460846569623
299,1436608816241,32.1781257666206
300,1436608816957,47.5723625805686
301,1436608817705,28.85709408788
302,1436608818426,43.0581071510873
303,1436608819190,34.0811111100011
304,1436608819930,20.478305900448
305,1436608820702,29.932766988298
306,1436608821430,59.059001473197
307,1436608822142,41.1177044583145
308,1436608822859,37.6115486975813
309,1436608823615,45.2008316939545
310,1436608824351,39.8205859032799
311,1436608825107,38.9464155050272
312,1436608825828,45.7789690908173
313,1436608826566,39.9403835017166
314,1436608827308,46.7600654456985
315,1436608828157,52.7167235572283
316,1436608828903,50.6991738211465
317,1436608829595,46.6243545383472
318,1436608830321,46.3066883935208
319,1436608831055,39.663698739854
320,1436608831780,43.7789275766259
321,1436608832500,42.8171168898122
322,1436608833212,54.5354012079807
323,1436608833890,8.51858891554962
324,1436608834661,26.0190790578047
325,1436608835367,45.2296229363076
326,1436608836098,56.8662915226602
327,1436608836818,44.7415617829917
328,1436608837555,41.4706384199403
329,1436608838376,40.1936457647656
330,1436608839088,45.6377473012751
331,1436608839819,41.5512362319618
332,1436608840561,26.3142301472962
333,1436608841291,48.5865028535193
334,1436608842042,29.9002693859352
335,1436608842796,19.0321421297765
336,1436608843530,45.4571568273617
337,1436608844315,34.7874970513001
338,1436608845063,4.91902287831395
339,1436608845808,40.1921506524189
340,1436608846533,16.6860238753863
341,1436608847272,39.3064153976762
342,1436608848020,7.02056795524672
343,1436608848759,46.0929356610637
344,1436608849510,20.7551700319627
345,1436608850232,50.9864226529989
346,1436608850951,38.6755516940736
347,1436608851711,41.5172706516389
348,1436608852441,46.7707202022066
349,1436608853124,31.7182620322296
350,1436608853859,45.5754122115073
351,1436608854621,43.5298533756829
352,1436608855353,32.3547042236698
353,1436608856085,31.0775756110367
354,1436608856785,38.9497610422855
355,1436608857519,38.8171464034469
356,1436608858239,23.7298668464408
357,1436608858961,36.6334508871287
358,1436608859701,29.657794995941
359,1436608860424,25.4897898663854
360,1436608861158,36.6692834990597
361,1436608861877,40.6190955257019
362,1436608862531,24.1853519959249
363,1436608863233,44.7149099158268
364,1436608863959,40.9813174587783
365,1436608864729,18.963327113708
366,1436608865460,19.4214681328824
367,1436608866190,21.7791449197756
368,1436608866927,40.1462619318118
369,1436608867685,40.410209181249
370,1436608868462,38.4936770375799
371,1436608869213,37.379802934547
372,1436608869821,43.4698607275874
373,1436608870561,40.6230548378188
374,1436608871215,30.0206213393343
375,1436608872656,40.9044104566313
376,1436608873410,37.691303829708
377,1436608874056,43.5990403865479
378,1436608874761,26.9681718233259
379,1436608875481,34.3796280046118
380,1436608876199,35.3258328586398
381,1436608876904,45.521524461017
382,1436608877539,37.7401712795828
383,1436608878229,45.5027381351307
384,1436608878978,39.7575529058016
385,1436608879742,46.7926041921935
386,1436608880452,28.5741512902228
387,1436608881186,53.7988318005744
388,1436608881908,4.38331708481296
389,1436608882667,39.4509263796998
390,1436608884594,4.82319729211602
391,1436608885302,54.7928778001669
392,1436608886024,50.3971590066646
393,1436608886764,56.6646662709972
394,1436608887485,53.9568386459322
395,1436608888284,55.2738938936287
396,1436608889007,44.5278645949772
397,1436608889725,51.2771584248153
398,1436608890429,35.8016168120814
399,1436608891135,47.3704915729756
400,1436608891845,45.3320617396507
401,1436608892582,46.3350373183343
402,1436608893304,49.5073616993467
403,1436608893979,59.4318476802102
404,1436608894754,47.5966787899765
405,1436608895464,41.2558894508414
406,1436608896182,44.111818712853
407,1436608896920,37.1350385662627
408,1436608897643,8.7262105592247
409,1436608899545,44.7988845152363
410,1436608900193,35.63046231517
411,1436608900922,53.2155855664877
412,1436608901685,45.053748159345
413,1436608902401,34.8847635155699
414,1436608903110,29.5651163334191
415,1436608903838,43.5272723954407
416,1436608904606,45.1830700383252
417,1436608905344,21.4669572281162
418,1436608906081,47.2694766024086
419,1436608906771,44.3851407022117
420,1436608908114,36.0383498917067
421,1436608908803,48.9593444988474
422,1436608909514,40.8234296351465
423,1436608910177,55.2577258068035
424,1436608910901,46.670246803393
425,1436608911633,45.7305158773859
426,1436608912346,42.375994025038
427,1436608913123,39.3388035503753
428,1436608913736,40.9871027600586
429,1436608914433,23.2982122587929
430,1436608915165,55.3276231373742
431,1436608915883,44.2292921725965
432,1436608916627,34.1407675084707
433,1436608917352,38.8472994163898
434,1436608918072,5.79253182266645
435,1436608918884,43.5612496670152
436,1436608919614,35.5017187809441
437,1436608920338,42.7113138910989
438,1436608921079,44.9182065933782
439,1436608921809,22.2778584654547
440,1436608922541,36.0460921250195
441,1436608923253,33.8546059172464
442,1436608924001,43.2261664128563
443,1436608924769,47.4442334398604
444,1436608925493,29.040415530795
445,1436608926216,31.7685229705734
446,1436608926949,26.7691937035956
447,1436608927685,48.7401278707924
448,1436608928417,38.4514476285458
449,1436608929138,27.9785837858525
450,1436608929857,33.3500470850555
451,1436608930530,33.0967394541916
452,1436608931241,20.4641144245267
453,1436608931957,44.3568164545284
454,1436608932683,42.9727599657066
455,1436608933402,27.7023150750446
456,1436608934122,44.8811188231047
457,1436608934758,43.2504189218534
458,1436608935441,42.8651462420538
459,1436608936173,44.907126186967
460,1436608936879,56.1257570908448
461,1436608937627,55.5288427565406
462,1436608938355,34.2037194983572
463,1436608939068,46.474721627666
464,1436608939795,41.0622075454423
465,1436608940515,44.8920932631712
466,1436608941218,52.8094180293052
467,1436608941939,48.7297116417609
468,1436608942703,39.1496363999202
469,1436608943433,39.7845341063674
470,1436608944159,42.6914976549985
471,1436608944859,40.529644538953
472,1436608945504,42.863201058189
473,1436608946214,50.5027438636741
474,1436608946932,49.9231803290475
475,1436608947684,32.2612472123342
476,1436608948486,47.2646810861753
477,1436608949211,34.6757030103023
478,1436608949916,35.8887945009632
479,1436608950615,44.3486377179212
480,1436608951326,31.3226798254123
481,1436608952068,34.8380478905019
482,1436608952775,57.613394213967
483,1436608953491,45.2030166438812
484,1436608954174,38.6849895418243
485,1436608954834,40.8945443183809
486,1436608955550,28.8552887289952
487,1436608956268,34.2360659801215
488,1436608957011,41.44693462571
489,1436608957767,50.1783927195388
490,1436608958486,63.3302846137666
491,1436608959222,60.1435609065892
492,1436608959958,54.416384783381
493,1436608960699,66.6876397523661
494,1436608961409,48.5810061845898
495,1436608962113,44.1632773474252
496,1436608962833,49.8146402386156
497,1436608963561,45.8135455477543
498,1436608964269,51.3411909609939
499,1436608965030,47.8278050390449
500,1436608965791,47.109359979311
501,1436608966554,42.0718786389124
502,1436608967305,37.5801985364818
503,1436608968033,40.7290346286953
504,1436608968765,53.9804764663028
505,1436608969508,51.8241981563466
506,1436608970273,36.5914303878975
507,1436608971008,40.9235378124063
508,1436608971746,39.2298601718853
509,1436608972438,57.2054717607043
510,1436608973173,43.1200394127171
511,1436608973882,38.9701643871258
512,1436608974568,45.9709257117684
513,1436608975257,15.7304017653655
514,1436608975996,37.4250193245632
515,1436608976737,57.1367249105391
516,1436608977465,30.0725326462005
517,1436608978195,50.6880652759249
518,1436608978927,50.1590728041009
519,1436608979680,33.1751664514939
520,1436608980403,35.6448703054851
521,1436608981135,33.8945438200476
522,1436608981859,46.818063820892
523,1436608982598,26.5559589684941
524,1436608983321,38.350860023983
525,1436608984061,57.6052401942652
526,1436608984807,68.0094783876031
527,1436608985544,48.3300332131872
528,1436608986257,52.7079650132986
529,1436608986984,59.8977011342065
530,1436608987731,44.3971602721439
531,1436608988451,47.7815069540947
532,1436608989263,46.8828187071675
533,1436608990012,44.6588622131788
534,1436608990745,42.3341978195849
535,1436608991389,44.4754069122602
536,1436608992096,41.5324519029659
537,1436608992824,55.8680542724674
538,1436608993596,33.4086961546256
539,1436608994353,38.6765676780815
540,1436608995060,44.5587815050411
541,1436608995796,30.0825029547299
542,1436608996520,45.4668703540046
543,1436608997241,39.6985559454083
544,1436608997959,39.2264631314767
545,1436608998653,40.1554586027949
546,1436608999404,46.0669639472321
547,1436609000115,45.2772164400359
548,1436609000843,48.0485600843617
549,1436609001587,50.9855503686162
550,1436609002292,28.9086228244374
551,1436609003053,22.9311284808085
552,1436609003794,40.8469410008088
553,1436609004501,39.9644156703886
554,1436609005216,42.8752593339434
555,1436609005950,34.2164751702681
556,1436609006733,36.1643953111524
557,1436609007436,57.2112987189699
558,1436609008185,63.3993321746521
559,1436609008911,51.7557564303548
560,1436609009667,47.6810329102784
561,1436609010367,48.6916923005597
562,1436609011038,50.9905224994445
563,1436609011813,57.522812160739
564,1436609012539,56.6239445343841
565,1436609013328,51.4420538047871
566,1436609014079,45.4887504747354
567,1436609014746,51.3565539102242
568,1436609015446,49.4315833317779
569,1436609016165,58.3329557655067
570,1436609016856,54.5900703664589
571,1436609017589,49.3190964738456
572,1436609018313,46.5707461132016
573,1436609019048,56.0966878722302
574,1436609019805,43.7829047151875
575,1436609020530,44.9808972092311
576,1436609021208,40.2491849099114
