id,attr_time,attr_db
1,1436608596055,2.24760864993587
2,1436608596820,3.92356297814842
3,1436608597549,6.42192333683735
4,1436608598284,7.14369400221736
5,1436608599019,12.141617260456
6,1436608599696,7.19703042044352
7,1436608600341,4.81828227420334
8,1436608601120,19.971549952988
9,1436608601880,27.7186698465165
10,1436608602612,26.2665096152762
11,1436608603361,12.8801330579116
12,1436608604106,20.1895134311956
13,1436608604831,18.0019676298414
14,1436608605574,24.1241397836313
15,1436608606313,25.6217894302378
16,1436608607053,39.1167783392141
17,1436608607875,22.7669929953302
18,1436608608510,67.5885316733483
19,1436608609187,69.6920078131823
20,1436608609914,71.0070468144521
21,1436608610700,38.6082521899221
22,1436608611363,69.6579425018603
23,1436608612108,59.5352061021374
24,1436608612850,64.9835073079213
25,1436608613607,53.3247615153695
26,1436608614367,61.1611439799589
27,1436608615093,64.4570573362021
28,1436608615869,48.0605967470633
29,1436608616569,60.8858290974038
30,1436608617248,23.5786652380362
31,1436608617977,47.2903093703974
32,1436608618703,44.375039856775
33,1436608619473,41.1400121126516
34,1436608620231,17.6981826719486
35,1436608620953,61.3523880490848
36,1436608621641,17.4564835865653
37,1436608622372,17.2887649657577
38,1436608623112,39.6441946577567
39,1436608623843,48.048550494484
40,1436608624574,42.7636246537141
41,1436608625414,33.6511224228183
42,1436608626139,40.5361163269616
43,1436608626877,64.9521584271145
44,1436608627562,39.2925110580197
45,1436608628173,50.6242842426907
46,1436608628852,47.7151331417232
47,1436608629579,37.0084063569312
48,1436608630357,6.52737632739416
49,1436608631007,54.081359516072
50,1436608631627,8.74670074539679
51,1436608632298,39.6683965553277
52,1436608632955,41.7882163968075
53,1436608633704,25.8875791132174
54,1436608634443,65.5198635474147
55,1436608635164,49.9585541495389
56,1436608635888,61.2950247626721
57,1436608636601,62.826882459056
58,1436608637319,60.4813443411353
59,1436608638019,38.5275648081142
60,1436608638696,62.488461437441
61,1436608639412,65.1527252978417
62,1436608640097,65.9769336238653
63,1436608640834,53.1010596474122
64,1436608641486,45.7855035713728
65,1436608642146,51.5929788554994
66,1436608642757,40.7220404180258
67,1436608643451,53.3821406995993
68,1436608644185,34.0265981696361
69,1436608644924,54.7560762050811
70,1436608645678,55.7747805808987
71,1436608646400,31.5084988654055
72,1436608647146,63.8784639380217
73,1436608647864,31.3352140969339
74,1436608648596,47.2709704217452
75,1436608649328,49.1919023302989
76,1436608650073,48.4064629825038
77,1436608650797,48.2954170755483
78,1436608651548,65.5766272656969
79,1436608652244,52.2398612905686
80,1436608652915,42.2724444699698
81,1436608653650,49.4159458996578
82,1436608654367,54.3348069806924
83,1436608655094,40.6864246998262
84,1436608655832,38.6620054581274
85,1436608656548,44.454661967026
86,1436608657256,14.5349954840983
87,1436608657952,60.0124487894747
88,1436608658701,46.4472608927207
89,1436608659438,51.4025532100532
90,1436608660201,28.928850841879
91,1436608660922,44.5165716019116
92,1436608661675,22.7490300918163
93,1436608662396,39.3925638992287
94,1436608663136,30.7870378300823
95,1436608663868,41.2037766386142
96,1436608664618,54.2189228437532
97,1436608665347,57.4165833090641
98,1436608666102,68.6841445014254
99,1436608666841,43.3149987715064
100,1436608667560,59.0908413931319
101,1436608668340,37.3370715782388
102,1436608669031,33.8259660683281
103,1436608669766,21.4973716195614
104,1436608670492,48.0843170547631
105,1436608671224,44.5094209585316
106,1436608673239,45.6412218557588
107,1436608673959,7.21749602197682
108,1436608674721,39.5009983950814
109,1436608675457,10.6845114347634
110,1436608676187,5.63701264453019
111,1436608676916,46.9928758875253
112,1436608677663,40.7617836385203
113,1436608678381,37.9050490460286
114,1436608679078,45.11402406496
115,1436608679796,19.8677304688596
116,1436608680516,13.4183306625616
117,1436608681197,34.1873002538891
118,1436608682598,36.3087220720902
119,1436608683309,6.37822538745709
120,1436608684037,19.8773646555095
121,1436608684820,49.5443931613637
122,1436608685558,22.0388448017167
123,1436608686215,19.1048796298096
124,1436608686902,11.0963964532839
125,1436608687638,64.0716352868887
126,1436608688308,55.5183864699061
127,1436608688909,49.481982401598
128,1436608689579,64.5343936706187
129,1436608690284,57.9469945546384
130,1436608691015,42.4991888503014
131,1436608691747,26.8971436752345
132,1436608692478,31.3804470935648
133,1436608693219,37.1714250119581
134,1436608693949,13.1010052070916
135,1436608694687,13.2913902722276
136,1436608695449,10.797916789545
137,1436608696178,44.8147681014255
138,1436608698214,35.3147551738979
139,1436608698927,8.62025319058725
140,1436608699680,11.0338754461855
141,1436608700448,5.29278714395042
142,1436608701179,15.7964614849918
143,1436608701909,9.88693706388498
144,1436608702660,40.8185275324674
145,1436608703391,34.9410458154869
146,1436608704124,54.8211167541963
147,1436608704881,51.4785087656719
148,1436608705547,34.0043059508222
149,1436608706926,17.0452725144086
150,1436608707633,16.7785054621758
151,1436608708359,16.3537826429366
152,1436608709086,14.245082222721
153,1436608709829,24.7006275276652
154,1436608710468,14.0595379679164
155,1436608711204,46.0410722097565
156,1436608711916,58.7267478653244
157,1436608712594,44.4593770437131
158,1436608713322,45.4348642370204
159,1436608714069,38.6954905385249
160,1436608714822,46.7182946888539
161,1436608715422,31.5149033440261
162,1436608716089,31.7283300964763
163,1436608716840,37.4603165692424
164,1436608717578,49.0726793172611
165,1436608718307,40.1314132081015
166,1436608719033,33.8824344965621
167,1436608719766,37.4162508412366
168,1436608720519,25.943116944583
169,1436608721232,20.9464470282017
170,1436608721957,43.390435265477
171,1436608722722,14.5432071635716
172,1436608723462,24.9813359189729
173,1436608724182,8.76001667269776
174,1436608724920,7.38540308867413
175,1436608725665,8.30670200298387
176,1436608726396,4.15123837853255
177,1436608727128,4.79732716237947
178,1436608727846,32.5593793998128
179,1436608728639,46.8961298505561
180,1436608729330,57.094039157261
181,1436608730075,63.8633622065898
182,1436608730825,16.142482465561
183,1436608731591,17.6296710780608
184,1436608732304,54.8722498659551
185,1436608733014,65.3181942999721
186,1436608733639,52.1296977446534
187,1436608734370,51.0139932826064
188,1436608735116,40.8162788854818
189,1436608735867,40.5900626315041
190,1436608736494,40.365018935052
191,1436608737226,67.8964279059571
192,1436608737993,40.7452210445245
193,1436608738771,57.5958254204087
194,1436608739493,47.7391134459673
195,1436608740212,39.0085560933927
196,1436608740959,18.7788574488991
197,1436608741738,8.93833179523384
198,1436608742466,7.6506772337541
199,1436608743192,18.8428697797221
200,1436608743942,36.3986502650183
201,1436608744716,33.4771193211296
202,1436608745430,14.4298588775911
203,1436608746225,19.8990460886785
204,1436608746955,42.5582891802372
205,1436608747671,4.65543082708746
206,1436608748283,54.3468546075296
207,1436608748946,44.0171376605437
208,1436608749567,53.9132178370262
209,1436608750331,45.5247341133829
210,1436608751086,42.0097449196088
211,1436608751876,74.4891144344034
212,1436608752558,28.0965848307001
213,1436608753247,21.214440994207
214,1436608753878,41.8346853914041
215,1436608754571,40.6794764481537
216,1436608755292,33.9427820604163
217,1436608756025,42.3090075998552
218,1436608756770,36.4781013998245
219,1436608757501,46.584119576584
220,1436608758236,37.26297290345
221,1436608758978,33.9114566439791
222,1436608759616,36.4824698145148
223,1436608760354,58.2900385657686
224,1436608761120,36.285625808244
225,1436608761870,42.3235352047788
226,1436608762615,44.2892805109441
227,1436608763359,41.1650478581277
228,1436608764111,31.145474404631
229,1436608764855,4.45550449249264
230,1436608765589,1.48409254564449
231,1436608766348,38.4541899636769
232,1436608767105,19.5539716289691
233,1436608767867,31.8140552835079
234,1436608768600,9.57084360712659
235,1436608769345,35.5800693725949
236,1436608770086,40.6667609903008
237,1436608770831,13.4413642464295
238,1436608771568,19.6010563298229
239,1436608772308,36.9861477989715
240,1436608773006,41.8286431958743
241,1436608773674,36.189086512872
242,1436608774319,13.8871825462277
243,1436608775041,31.2442336879558
244,1436608775791,16.805699330547
245,1436608776510,60.9119252319729
246,1436608777239,14.1756129140934
247,1436608777883,1.92608647780424
248,1436608778601,2.7839239247522
249,1436608779330,1.17391147068034
250,1436608780065,4.29772035352316
251,1436608780819,11.7808955113578
252,1436608781547,37.2091931502448
253,1436608782274,38.3370621231724
254,1436608783004,36.4964010544096
255,1436608783769,34.8806980758505
256,1436608784434,37.5131255887343
257,1436608785139,25.0309542800064
258,1436608785816,9.74862766825406
259,1436608786553,63.5065677278602
260,1436608787284,49.0025202108607
261,1436608788029,38.3481333242169
262,1436608788736,50.4172146884826
263,1436608789281,58.0707081970785
264,1436608789938,18.0586352761817
265,1436608790677,30.8594377254271
266,1436608791448,4.35447226083425
267,1436608792177,45.0786281222472
268,1436608792897,35.9177558880064
269,1436608793588,51.3138280975715
270,1436608794307,51.0409598036771
271,1436608795025,49.3600633916248
272,1436608795770,35.9693847152577
273,1436608796535,33.4543917011706
274,1436608797273,8.05280104242762
275,1436608798088,38.7377967356585
276,1436608798844,50.233012338184
277,1436608799637,28.9728401808955
278,1436608800310,59.4325154594504
279,1436608800966,59.7194911796303
280,1436608801710,62.024970172711
281,1436608802448,38.8881923181704
282,1436608803169,56.571556283068
283,1436608803883,63.2718268710872
284,1436608804634,32.3570192558462
285,1436608805348,59.8048984713333
286,1436608806095,23.4151485900996
287,1436608806864,43.390598308822
288,1436608807611,36.0601700341871
289,1436608808340,11.4538513725222
290,1436608809060,39.2900330213019
291,1436608809673,32.5059905230498
292,1436608810429,39.8586088386226
293,1436608811100,42.1061712991064
294,1436608811798,41.711837463037
295,1436608812524,70.4112557663513
296,1436608813247,56.9755733728864
297,1436608813926,43.5225593372673
298,1436608814696,37.975614649053
299,1436608815434,49.1588120109247
300,1436608816166,42.6190381410697
301,1436608816903,57.9991367465472
302,1436608817654,25.4812621459505
303,1436608818380,49.6294275466982
304,1436608819115,13.6618308278448
305,1436608819844,16.4109962824817
306,1436608820578,23.6659960597131
307,1436608821310,27.3384070559742
308,1436608822026,48.8384173904143
309,1436608822685,44.2245258199749
310,1436608823405,37.9799370875208
311,1436608824149,41.1304420019496
312,1436608824870,38.8211188134296
313,1436608825618,37.0811830974133
314,1436608826361,38.2862809715714
315,1436608827105,59.7985079640929
316,1436608827864,65.6437232163767
317,1436608828617,67.2696519284703
318,1436608829328,53.8027436671546
319,1436608829983,55.7401729591579
320,1436608830676,38.0697115433107
321,1436608831428,55.2475686421316
322,1436608832113,59.8344855384931
323,1436608832802,54.3497961698156
324,1436608833506,16.0573831446236
325,1436608834161,1.05181864221557
326,1436608834887,44.9803199067965
327,1436608835643,40.2582530436212
328,1436608836388,42.6652505285359
329,1436608837105,61.2166409038253
330,1436608837859,49.9001391338795
331,1436608838602,59.0783337863627
332,1436608839336,19.3456277328369
333,1436608840078,22.8047294027256
334,1436608840830,31.1806099664564
335,1436608841592,67.6804714405454
336,1436608842327,17.0885951583763
337,1436608843069,38.8043746665161
338,1436608843818,64.4740582175116
339,1436608844578,50.7654614580891
340,1436608845288,10.8762218558034
341,1436608846030,67.1094317467447
342,1436608846789,34.8130469407019
343,1436608847529,57.1871315112137
344,1436608848252,47.156366863977
345,1436608848985,42.1152419395387
346,1436608849734,7.37292011788376
347,1436608850390,60.8783172014735
348,1436608851124,61.5388204179041
349,1436608851884,63.9727139335009
350,1436608852578,62.6858076661568
351,1436608853240,29.2393653373845
352,1436608853887,47.6789407658716
353,1436608854563,62.6504881699619
354,1436608855317,32.3189681575717
355,1436608856062,40.1172205599192
356,1436608856832,37.404504440469
357,1436608857505,48.9179818559055
358,1436608858091,29.4102967127264
359,1436608858814,37.5944161804286
360,1436608859415,32.5855714282309
361,1436608860078,41.7022468165811
362,1436608860748,57.7308677067246
363,1436608861519,48.1323135576526
364,1436608862246,31.568166968692
365,1436608862997,41.0622731803316
366,1436608863724,63.0158874898518
367,1436608864447,21.1278150920588
368,1436608865096,67.9537252775006
369,1436608865836,36.5352573838088
370,1436608866691,32.4712785493385
371,1436608867419,45.2884653264437
372,1436608868135,58.6981794702741
373,1436608868869,33.2753327736628
374,1436608869558,58.3805265242861
375,1436608870154,29.4988848659959
376,1436608870884,52.7237692957549
377,1436608871620,35.9756970323545
378,1436608872267,17.9008331537405
379,1436608872953,47.2356177614752
380,1436608873700,27.4103080785733
381,1436608874359,41.2745035457641
382,1436608875042,18.8141071262971
383,1436608875689,59.3140000206567
384,1436608877161,51.9227261683009
385,1436608877828,50.3490522431339
386,1436608878538,59.8952260755104
387,1436608879203,43.0983068563866
388,1436608879940,48.2727432280279
389,1436608880631,36.6985246440154
390,1436608881351,66.0951508609047
391,1436608882094,8.12984633353295
392,1436608882829,56.7997094388627
393,1436608883583,44.8621693814802
394,1436608884306,13.5118985536082
395,1436608885069,63.580193760697
396,1436608885800,67.865914092464
397,1436608886504,66.5599530001366
398,1436608887172,57.6772576821384
399,1436608887895,42.2169003818199
400,1436608888608,64.7217333706616
401,1436608889295,47.9443605608484
402,1436608890728,44.4947094451642
403,1436608891456,33.1436522514548
404,1436608892178,43.6093445308066
405,1436608892896,70.2848596390272
406,1436608893629,53.2611322821162
407,1436608894309,59.3512171970864
408,1436608895071,52.6802591838745
409,1436608895809,50.0440351890769
410,1436608896533,46.1059185885538
411,1436608897243,29.9827362200163
412,1436608897933,49.7047891125028
413,1436608898588,59.3957471663464
414,1436608899300,50.6676816839662
415,1436608900041,64.0913594581965
416,1436608900850,64.8474176995144
417,1436608901544,23.9766502945423
418,1436608902284,58.0390465196467
419,1436608902985,55.0379825610999
420,1436608903659,61.7358954346967
421,1436608904385,42.8272908147838
422,1436608905131,43.1773055500912
423,1436608905863,56.6354808553794
424,1436608906592,58.8986841377974
425,1436608907323,50.1908523939575
426,1436608908078,19.0437325854344
427,1436608908747,50.6233080563602
428,1436608909535,44.7854597934747
429,1436608910270,40.0050194158367
430,1436608910998,42.9951792022424
431,1436608911758,43.122426032888
432,1436608912463,37.7489863077835
433,1436608914216,43.7306808213225
434,1436608914954,48.8837482241518
435,1436608915769,41.1828071052445
436,1436608916494,42.307207703552
437,1436608917206,47.9928774686161
438,1436608917952,6.40771909877721
439,1436608918624,47.1475359955645
440,1436608919311,33.7900537221876
441,1436608920049,14.5960315664895
442,1436608920805,42.0912118575222
443,1436608921561,3.1574826947504
444,1436608922295,55.0317799535227
445,1436608923038,36.8110725539499
446,1436608923815,45.248845740864
447,1436608924497,41.0914198092226
448,1436608925269,52.0053856338456
449,1436608926940,6.41490048789077
450,1436608927634,57.0894947160082
451,1436608928355,59.9809297636351
452,1436608929077,15.9649791918887
453,1436608929829,12.3025837201329
454,1436608930626,16.4466158676711
455,1436608931311,16.040539942541
456,1436608932048,38.4846766954707
457,1436608932779,44.5995991941865
458,1436608933505,11.3501478702058
459,1436608934229,50.6913668307762
460,1436608934892,60.124616073379
461,1436608935565,25.5238603786942
462,1436608936319,60.1465546175446
463,1436608937062,52.4851430018485
464,1436608937817,43.7190396388535
465,1436608938489,37.2022550413723
466,1436608939209,41.4156151561445
467,1436608939889,26.2876336623681
468,1436608940483,32.2731415745237
469,1436608941211,43.3069669741761
470,1436608941950,49.9362503202168
471,1436608942689,36.8974342432322
472,1436608943346,33.7440031146464
473,1436608944084,41.8281560166551
474,1436608944805,6.68761836760851
475,1436608945532,42.9028878805278
476,1436608946258,62.4448448546646
477,1436608947015,44.4636851039274
478,1436608947760,21.0977060218795
479,1436608948508,49.2543967608653
480,1436608949228,6.49621488962928
481,1436608949962,34.2392970823941
482,1436608950636,32.8547460469836
483,1436608951302,38.2611566509268
484,1436608952067,29.358615626165
485,1436608952802,55.0214283371864
486,1436608953550,44.3589577323216
487,1436608954263,40.5307700887467
488,1436608954920,39.6749020288422
489,1436608955578,25.6967502091335
490,1436608956304,32.1294999353327
491,1436608957093,40.0025178566941
492,1436608957837,40.3848638470836
493,1436608958506,74.1264497936663
494,1436608959168,54.7271298326892
495,1436608959914,55.638820487037
496,1436608960632,53.7571555569343
497,1436608961325,38.5539032748204
498,1436608962013,44.3523339325029
499,1436608962773,58.901958407356
500,1436608963469,33.950435099878
501,1436608964152,15.7792739340859
502,1436608964901,9.66519199651447
503,1436608965576,41.5442208676162
504,1436608966294,42.9351412597714
505,1436608967041,41.1519798464426
506,1436608967760,41.6362434564013
507,1436608968505,46.3671765117682
508,1436608969240,46.1353088409259
509,1436608969978,50.9661939576238
510,1436608970668,56.9178801118635
511,1436608971320,37.5220705456147
512,1436608972070,10.3134994677988
513,1436608972795,40.635783944052
514,1436608973515,25.516544896092
515,1436608974245,46.0451209209121
516,1436608974977,53.387267138246
517,1436608975637,31.1152042583822
518,1436608976394,41.3744671043162
519,1436608977207,53.5083141452219
520,1436608977923,55.2231702660577
521,1436608978670,56.5017485368211
522,1436608979385,31.7848417452875
523,1436608980122,25.420956985293
524,1436608980889,46.6003189643777
525,1436608981491,42.6342421463003
526,1436608982183,60.5115273825
527,1436608982940,43.2737569299696
528,1436608983699,45.5672798633403
529,1436608984427,44.2128876103203
530,1436608985165,57.6745862774869
531,1436608985881,69.7969067016451
532,1436608986610,59.131001973282
533,1436608987325,60.649928008227
534,1436608988055,56.2325824648056
535,1436608988797,60.6494525133089
536,1436608989534,62.4185792431847
537,1436608990234,33.8634405625781
538,1436608990881,55.4953908679965
539,1436608991460,58.0813779328394
540,1436608992120,59.1652853261407
541,1436608992863,66.0701150780547
542,1436608993622,18.231863312789
543,1436608994342,61.6309476995839
544,1436608995058,63.0849651494084
545,1436608995733,31.3409897044381
546,1436608996466,68.0104256267342
547,1436608997217,43.2122703833632
548,1436608997973,54.5797343974854
549,1436608998683,54.7062536758651
550,1436608999406,46.5788696313525
551,1436609000159,45.7736426001114
552,1436609001009,63.2970198447028
553,1436609001710,53.9681025918879
554,1436609002381,18.8246991467429
555,1436609003079,22.0782468006626
556,1436609003813,36.391783519927
557,1436609004554,33.8240102491363
558,1436609005285,51.7091926043807
559,1436609006001,30.3124125007174
560,1436609006760,40.1261378777682
561,1436609007425,53.3148828088508
562,1436609008158,64.2236160553517
563,1436609008900,58.3047713704072
564,1436609009619,54.6981265006109
565,1436609010337,42.6909785796698
566,1436609011101,45.2586118229811
567,1436609011819,53.3142186483583
568,1436609012470,69.2633718664891
569,1436609013200,59.1506394400538
570,1436609013924,46.7954150500391
571,1436609014658,57.652725770335
572,1436609015349,61.7635536842418
573,1436609016049,61.4034852540043
574,1436609016793,51.4221551953472
575,1436609017518,58.2607139622789
