id,attr_time,attr_db
1,1436624160671,46.2144769275219
2,1436624161431,45.5353720686313
3,1436624162165,49.9417160965085
4,1436624162932,44.3490639759368
5,1436624163683,50.9481840868958
6,1436624164425,48.9335701825118
7,1436624165167,46.9900659181403
8,1436624165908,42.1490796442069
9,1436624166636,42.1134916111539
10,1436624167321,39.9191545252343
11,1436624168025,42.9932929942288
12,1436624168798,41.2217269847679
13,1436624169527,41.0960507094731
14,1436624170283,40.0193392677409
15,1436624171002,39.8582329728312
16,1436624171745,41.8401994725735
17,1436624172492,42.4368611586824
18,1436624173221,44.1227226349787
19,1436624173882,45.2715166132732
20,1436624174652,40.0496826362994
21,1436624175397,42.3168344795179
22,1436624176136,41.3511002905157
23,1436624176870,41.0872681282017
24,1436624177604,49.5823065751203
25,1436624178209,38.0778471684756
26,1436624178845,39.4133242789634
27,1436624179550,50.7294924422217
28,1436624180332,39.4419464166837
29,1436624181065,44.8606007435276
30,1436624181790,58.4211980649421
31,1436624182510,47.9535620203579
32,1436624183244,43.227499059351
33,1436624183964,40.4616508735401
34,1436624184736,40.9993541548037
35,1436624185511,57.2440156853912
36,1436624186152,42.5579449784428
37,1436624186851,67.7154658784577
38,1436624187587,66.5488215162848
39,1436624188290,54.3496561914905
40,1436624188935,47.0869633927242
41,1436624189680,74.4610683668688
42,1436624190418,56.0516344418088
43,1436624191146,42.157734735018
44,1436624191877,41.1398045102425
45,1436624192581,73.2937012511672
46,1436624193321,60.8393222515392
47,1436624194049,43.607293438142
48,1436624194823,42.6015459680344
49,1436624195573,43.5504027703924
50,1436624196320,45.320299856736
51,1436624197048,66.7270669542904
52,1436624197760,59.3898023255835
53,1436624198410,45.4225917949111
54,1436624199078,47.4702597780569
55,1436624199854,57.026455232264
56,1436624200604,47.1638283861985
57,1436624201381,41.7372325327607
58,1436624202069,42.7590631083093
59,1436624202790,63.2049674753115
60,1436624203534,43.1178413809826
61,1436624204250,41.8448707057065
62,1436624204981,57.282094479242
63,1436624205726,53.439641459998
64,1436624206446,44.9063837517098
65,1436624207171,41.8670168803472
66,1436624207893,54.9024097903225
67,1436624208617,68.2651386746937
68,1436624209646,41.9536054864838
69,1436624210268,41.3385761875416
70,1436624210939,42.193537862374
71,1436624211663,44.6279199278199
72,1436624212383,62.5662493439195
73,1436624213060,68.4439023275106
74,1436624213723,74.3131939419732
75,1436624214463,40.0154186277046
76,1436624215102,39.4907154409119
77,1436624215834,37.5080739400785
78,1436624216555,37.663062869712
79,1436624217275,64.5066528355552
80,1436624217989,67.3704635088251
81,1436624218677,40.1424207222539
82,1436624219316,67.5557940108177
83,1436624220028,62.815770205891
84,1436624220790,65.8673488199929
85,1436624221520,66.1692414832661
86,1436624222252,61.4932058589347
87,1436624222965,40.8398770210841
88,1436624223720,38.0798663903799
89,1436624224443,39.7603695933188
90,1436624225189,46.7767924333942
91,1436624225863,38.0641139943636
92,1436624226452,47.4101859215499
93,1436624227122,42.2433615490936
94,1436624227844,37.8514260105727
95,1436624228569,56.0556972888297
96,1436624229311,42.4321911489205
97,1436624230016,40.0287513960525
98,1436624230741,35.9150460965675
99,1436624231480,35.2611593771332
100,1436624232192,46.2702881642867
101,1436624232806,34.4169001005016
102,1436624233478,37.9666090840152
103,1436624234211,40.7956766336914
104,1436624234957,55.3599188305594
105,1436624235695,37.2289033280759
106,1436624236437,38.8750644266892
107,1436624237172,50.9714593236684
108,1436624237919,39.4986651138348
109,1436624238625,34.2096816977913
110,1436624239298,35.0136511623076
111,1436624240078,36.476937842865
112,1436624240807,35.7283228597662
113,1436624241538,40.4316752372892
114,1436624242288,35.7846416681784
115,1436624243059,38.5760157158469
116,1436624243768,41.8727030175326
117,1436624244461,49.9158807064548
118,1436624245132,65.2640479152391
119,1436624245870,63.0197158056603
120,1436624246603,43.1956316685877
121,1436624247343,40.53393827504
122,1436624248096,48.4161871603753
123,1436624248830,41.9729031642882
124,1436624249557,44.2464975119609
125,1436624250253,66.484891128561
126,1436624250924,65.1463827791391
127,1436624251636,47.6747311553687
128,1436624252397,54.3118086020393
129,1436624253124,54.3997283378248
130,1436624253818,54.0917365249097
131,1436624254562,52.340185314943
132,1436624255380,47.3658684514619
133,1436624256107,43.8125730725161
134,1436624256823,47.3664905342731
135,1436624257552,38.0523124718799
136,1436624258252,34.7444040884516
137,1436624258884,40.2535349592373
138,1436624259588,61.2828115116275
139,1436624260323,60.1125523077603
140,1436624261045,41.9675997695505
141,1436624261758,39.6863913654865
142,1436624262437,45.8677391748288
143,1436624263251,34.375682336158
144,1436624263981,26.0796913295144
145,1436624264730,31.7974843872172
146,1436624265469,58.6657123650793
147,1436624266178,54.6560036794644
148,1436624266885,32.5468384152384
149,1436624267614,38.7021123470987
150,1436624268334,30.4257308392693
151,1436624269048,30.4865509692984
152,1436624269781,58.617845214389
153,1436624270503,45.4843363420671
154,1436624271235,33.4269229051363
155,1436624271932,37.3341483909069
156,1436624272654,40.8066135503449
157,1436624273383,36.9740194737637
158,1436624274155,33.2189560089833
159,1436624274933,32.2402050332274
160,1436624275663,36.0362728039493
161,1436624276371,34.1594098752824
162,1436624277089,33.7876831459303
163,1436624277755,47.5712273860166
164,1436624278546,59.7636082879118
165,1436624279197,41.4580152814457
166,1436624279894,38.0685441093326
167,1436624280648,34.7754048557014
168,1436624281381,55.0807563536106
169,1436624282111,52.162249495908
170,1436624282877,47.4858416608562
171,1436624283622,33.8753156025042
172,1436624284363,40.4164895677196
173,1436624285114,43.8014882386993
174,1436624285839,45.7102915692191
175,1436624286575,34.0479010676391
176,1436624287356,33.4202959043821
177,1436624288015,59.5594918859121
178,1436624288763,66.1528570818897
179,1436624289489,70.7016364493132
180,1436624290226,68.5507476287121
181,1436624290950,54.2724200186166
182,1436624291671,63.4061701588471
183,1436624292395,60.7520733922942
184,1436624293136,32.7857720391289
185,1436624293783,35.9738774160431
186,1436624294533,37.749915257421
187,1436624295305,29.3223101917456
188,1436624296025,58.2311896379931
189,1436624296761,38.0856181766602
190,1436624297503,41.6873769418029
191,1436624298284,65.1662758184574
192,1436624298834,37.1552512022794
193,1436624299510,41.4200042882237
194,1436624300227,63.9150312214606
195,1436624300962,47.2291859461527
196,1436624301711,61.920716210336
197,1436624302421,29.1376545400749
198,1436624303090,29.7114964330871
199,1436624303748,25.0748552320592
200,1436624304515,23.791607496375
201,1436624305274,41.6742962426431
202,1436624305998,51.997600904336
203,1436624306724,37.8243507747778
204,1436624307491,44.264626771968
205,1436624308242,29.5746415873319
206,1436624308980,44.873576387639
207,1436624309731,41.4887709295773
208,1436624310454,38.2215231877747
209,1436624311170,34.4789980206385
210,1436624311904,31.943939187203
211,1436624312633,31.6666676927435
212,1436624313353,54.9693458091087
213,1436624314024,27.7402594437282
214,1436624314711,29.5653349386975
215,1436624315420,51.2145973375718
216,1436624316164,57.1097958813575
217,1436624316837,36.1792547907093
218,1436624317493,24.1031414577314
219,1436624318176,47.6228688540305
220,1436624318811,35.5799519404392
221,1436624319487,28.3380156806104
222,1436624320221,40.529951963545
223,1436624320947,39.166730357522
224,1436624321688,38.0483046792266
225,1436624322434,24.191126601965
226,1436624323153,36.1524204627079
227,1436624323888,39.8048291024574
228,1436624324661,35.5976531488021
229,1436624325404,30.6860432943727
230,1436624326133,26.8980781481498
231,1436624326883,41.2881693967802
232,1436624327619,43.9330113496757
233,1436624328347,43.1688723017688
234,1436624329070,40.1055148617846
235,1436624329781,44.352166893739
236,1436624330501,59.5668574674337
237,1436624331262,53.3188383782433
238,1436624332003,59.5879885616227
239,1436624332737,60.132305450735
240,1436624333466,65.708960272964
241,1436624334210,63.0387291562266
242,1436624334961,62.6490444223111
243,1436624335608,55.5872637483817
244,1436624336351,36.6653979633477
245,1436624337083,25.057388766772
246,1436624337808,35.1614138319187
247,1436624338548,41.9837237606225
248,1436624339317,31.2344920675514
249,1436624340008,43.9264635556818
250,1436624340753,25.5704701652342
251,1436624341473,42.3310819250485
252,1436624342135,30.7886633690979
253,1436624343441,28.4499317758623
254,1436624344171,47.6039077176632
255,1436624344894,31.9349399786425
256,1436624345602,31.7330768868726
257,1436624346235,21.2485091837524
258,1436624346931,34.3100967744146
259,1436624347606,21.1934437830555
260,1436624348351,43.2053974222574
261,1436624349087,35.9963057852495
262,1436624349808,41.7843170145874
263,1436624350563,34.5372023624453
264,1436624351288,34.9867380436258
265,1436624352018,37.2337740630528
266,1436624352748,30.4469762219276
267,1436624353483,25.4853375027313
268,1436624355247,29.0639399923553
269,1436624355902,26.5636292701749
270,1436624356607,29.8567294256978
271,1436624357320,35.9800836541524
272,1436624358053,41.0767285079981
273,1436624358729,28.6479429748602
274,1436624359315,27.8466317481383
275,1436624359990,33.5279918437242
276,1436624360721,34.5627329117742
277,1436624361460,26.8781710968627
278,1436624362187,25.0579767117355
279,1436624362844,35.00821595386
280,1436624363509,32.0190678249527
281,1436624364209,38.6273926446467
282,1436624364958,32.0976526118274
283,1436624365696,31.4661212454403
284,1436624366407,40.1855088009085
285,1436624367106,35.5003130654013
286,1436624367811,36.4092764652785
287,1436624369815,66.232029097581
288,1436624370551,32.4657219749594
289,1436624371258,36.8506690233606
290,1436624371935,37.3034712613617
291,1436624372644,38.1668717221986
292,1436624373410,38.2648137592286
293,1436624374203,35.9257340182973
294,1436624374962,76.0761468915314
295,1436624375702,72.4763299897875
296,1436624376422,67.9328809033014
297,1436624377112,70.6494749704804
298,1436624378578,42.9066986849273
299,1436624379367,42.4951755252818
300,1436624380085,60.4658026661367
301,1436624380704,75.0706135443762
302,1436624381379,58.9427302175464
303,1436624382081,54.4205873891979
304,1436624382822,36.250065017356
305,1436624383578,36.9375968001571
306,1436624384312,35.5555011968072
307,1436624385041,33.3145057753645
308,1436624385769,32.7741065045198
309,1436624386494,34.6926759329043
310,1436624387219,36.0193344662935
311,1436624387955,72.6464044801458
312,1436624388662,66.2998664978709
313,1436624389403,68.7317671392239
314,1436624390208,61.4064940574022
315,1436624390933,64.5986508916235
316,1436624391691,27.3953512745063
317,1436624392432,25.9105035567635
318,1436624393085,39.5947572939557
319,1436624393816,30.6672837566659
320,1436624394594,48.8423720227619
321,1436624395364,44.4391987368502
322,1436624396090,38.4530233725365
323,1436624396815,25.7703481478373
324,1436624397501,50.1332821579634
325,1436624398128,46.1765724763744
326,1436624398773,29.4648777531568
327,1436624399507,51.038210593198
328,1436624400278,56.0639152012777
329,1436624400932,54.2496892240495
330,1436624401620,56.085352837888
331,1436624402359,39.5582998508534
332,1436624403104,55.2151654901202
333,1436624403816,43.9301271253682
334,1436624404572,41.4016314955599
335,1436624405284,34.4676459416393
336,1436624405870,25.2834848169982
337,1436624406536,71.3765205785094
338,1436624407218,28.8704573675358
339,1436624407957,31.7587823231906
340,1436624408703,30.441576206046
341,1436624409337,56.7498760642207
342,1436624410037,35.0613212207358
343,1436624410776,36.4818658787655
344,1436624411493,35.646591575513
345,1436624412240,50.6383722988483
346,1436624412935,40.4587881116479
347,1436624413548,32.7733559904305
348,1436624414288,44.5718513266072
349,1436624415028,68.520196221313
350,1436624415763,38.8973001956673
351,1436624416488,62.9028368065256
352,1436624417228,28.0882394109639
353,1436624417934,30.2257099834567
354,1436624418682,41.4941025444334
355,1436624419398,53.5585152964389
356,1436624420086,27.3317418322453
357,1436624420764,26.0752814840832
358,1436624421503,33.3984239573904
359,1436624422243,63.3253018626049
360,1436624422976,34.9088394352831
361,1436624423711,31.7002065143869
362,1436624424460,30.5136940025367
363,1436624425141,28.8921388819859
364,1436624425871,34.3629311735867
365,1436624426616,31.9984192488887
366,1436624427355,30.6272968181288
367,1436624428092,30.1558196805203
368,1436624428822,35.2260041195308
369,1436624429544,30.1840604326152
370,1436624430244,28.5582631305186
371,1436624430937,34.8353061914852
372,1436624431669,35.0475917585495
373,1436624432400,37.9268822856878
374,1436624433133,67.6082174346639
375,1436624433864,30.4796308365059
376,1436624434571,28.0964990854241
377,1436624435241,31.0794357061985
378,1436624435950,67.0812952134746
379,1436624436621,57.7415381238871
380,1436624437348,61.1286350326278
381,1436624438084,31.1615880721021
382,1436624438825,39.1167790870251
383,1436624439563,63.6581895830508
384,1436624440294,66.9568353311023
385,1436624440967,54.3405528297821
386,1436624441661,64.3374622385909
387,1436624442381,50.7948315352732
388,1436624443127,39.2111438489763
389,1436624443840,45.4263468909386
390,1436624444579,30.590959361352
391,1436624445315,34.8993303021029
392,1436624445991,32.0629877097071
393,1436624446730,31.0157266934147
394,1436624447487,63.5681305356851
395,1436624448219,43.6768597540591
396,1436624448951,66.5307715225317
397,1436624449673,60.9955215864889
398,1436624450382,30.1464001805735
399,1436624451106,32.8927412066253
400,1436624451781,28.3800149146033
401,1436624452433,44.704938408783
402,1436624453182,42.6327677834191
403,1436624453907,36.1142423168723
404,1436624454649,44.7337411140353
405,1436624455470,55.5288785762818
406,1436624456127,71.1702952027896
407,1436624456803,62.7113490518352
408,1436624457464,65.8319899200689
409,1436624458196,71.809591942678
410,1436624458923,71.9558051570591
411,1436624459640,63.3981033217385
412,1436624460367,46.4860090456807
413,1436624461026,39.8697937897214
414,1436624461712,33.8992335194175
415,1436624462432,34.4636119694473
416,1436624463177,33.0083465760579
417,1436624463898,55.5960240315357
418,1436624464625,47.5721261113469
419,1436624465383,40.59041029596
420,1436624466051,43.4800816259175
421,1436624466787,41.6801783232952
422,1436624467499,41.2534245864027
423,1436624468232,67.2083102090102
424,1436624468974,59.5524509471908
425,1436624469715,38.8103530278463
426,1436624470452,43.0880158184499
427,1436624471196,39.1952122136516
428,1436624471903,50.3465146531891
429,1436624472556,47.1553674040759
430,1436624473305,42.1183105131298
431,1436624474053,34.1966906111061
432,1436624474788,31.355565846533
433,1436624475524,43.3314318682528
434,1436624476294,43.0059675500739
435,1436624477016,57.9786624628021
436,1436624477725,38.6109803123981
437,1436624478417,40.470634329676
438,1436624479136,36.3625610941441
439,1436624479883,33.1143056689266
440,1436624480555,36.9179555909896
441,1436624481146,67.5658619599486
442,1436624481831,62.340247911789
443,1436624482511,63.6852448579447
444,1436624483281,67.2406176764436
445,1436624483997,34.9678511836542
446,1436624484730,61.6014158702209
447,1436624485406,65.2905111071572
448,1436624486143,41.4354328477617
449,1436624486860,33.9928496070933
450,1436624487584,33.3210765986397
451,1436624488320,71.5033995518487
452,1436624489050,41.4910223804452
453,1436624489786,59.291358188983
454,1436624490482,52.1791633665438
455,1436624491117,70.20839200788
456,1436624491871,31.8835893535958
457,1436624492588,59.1183197075525
458,1436624493215,45.6187714096782
459,1436624493919,63.5368673694308
460,1436624494660,59.0210620868751
461,1436624495396,53.4174462160103
462,1436624496244,60.4680252494084
463,1436624496873,60.2857453341276
464,1436624497549,46.5255094076009
465,1436624498239,44.1498397016445
466,1436624498909,38.9650718987217
467,1436624499648,35.9794832404736
468,1436624500396,42.2546648889086
469,1436624501121,49.0781711734282
470,1436624501727,65.7297948279695
471,1436624502406,48.3506740411872
472,1436624503107,63.0123562853434
473,1436624503760,52.466350738716
474,1436624504479,65.4907359884584
475,1436624505256,43.2511062110063
476,1436624506028,44.7991947149983
477,1436624506763,40.1038665335764
478,1436624507483,69.1951343525936
479,1436624508209,37.79034616683
480,1436624508879,39.8321302557077
481,1436624509601,34.7439874125334
482,1436624510577,37.8547673812697
483,1436624511179,32.0124444606914
484,1436624511819,38.1158883786645
485,1436624512538,41.2713410759704
486,1436624513263,36.9412764180183
487,1436624513936,32.4029073667693
488,1436624514645,28.8334515120932
489,1436624515447,33.3200180877145
490,1436624516206,39.5695083669818
491,1436624516936,30.3328257635274
492,1436624517681,52.9826802436713
493,1436624518426,48.5521432544387
494,1436624519107,46.9902898235448
495,1436624519825,38.6261331937467
496,1436624520546,43.6632464075876
497,1436624521276,37.9396087832493
498,1436624521864,41.8878912875958
499,1436624522562,41.0621150599994
500,1436624523275,41.4624760583897
501,1436624524067,36.9220685368279
502,1436624524722,56.8977737469585
503,1436624525411,57.3161204856904
504,1436624526102,42.695881590105
505,1436624526837,57.1951650458201
506,1436624527572,55.9512073765981
507,1436624528312,47.2551662587279
508,1436624528903,30.9210309344824
509,1436624529629,29.3087336239085
510,1436624530357,31.2568075335767
511,1436624531097,31.5982037959956
512,1436624531835,32.4406006242347
513,1436624532573,30.4219902305267
514,1436624533297,38.6606206631183
515,1436624534057,37.8125763688414
516,1436624534796,37.1462900077755
517,1436624535443,31.8808409190731
518,1436624536166,26.9473888924891
519,1436624536837,30.706357635489
520,1436624537516,38.5967523621109
521,1436624538288,37.5628853339878
522,1436624538997,40.9101531199236
523,1436624539714,26.2654700298403
524,1436624540453,31.8364010357397
525,1436624541202,39.3181270718188
526,1436624541908,22.8390605440655
527,1436624542645,36.4892879722726
528,1436624543356,29.7398575055167
529,1436624544065,31.3183325199851
530,1436624544718,33.2198195204195
531,1436624545331,29.804125134742
532,1436624546009,37.5809597639313
533,1436624547761,39.8573935870692
534,1436624548436,41.6570604821165
535,1436624549232,38.0783143985565
536,1436624549960,27.5845616746567
537,1436624550677,40.5996433389874
538,1436624551473,36.040236698977
539,1436624552216,44.3725569009306
540,1436624552947,38.705903363314
541,1436624553703,28.7819376685225
542,1436624554474,22.8844768543375
543,1436624555178,21.1338040649442
544,1436624555824,29.191545408792
545,1436624556537,23.0337521546347
546,1436624557255,32.5782755260754
547,1436624557976,37.2558839119265
548,1436624558713,35.4272759679563
549,1436624559433,36.5749084168269
550,1436624560163,29.6535861755095
551,1436624560847,42.2672668347363
552,1436624561441,35.3853410872663
553,1436624563194,28.696435834566
554,1436624563937,33.8553853415171
555,1436624564665,26.6644500503897
556,1436624565414,32.0926074976678
557,1436624566108,37.358709985614
558,1436624566753,33.3135393660012
559,1436624567428,43.9238863851558
560,1436624568160,51.299456275136
561,1436624568882,42.6119294155683
562,1436624569603,47.4599946083572
563,1436624570384,71.5645459890242
564,1436624571111,68.7143791180074
565,1436624571854,62.5718003360789
566,1436624572587,59.1671642966492
567,1436624573307,42.2689987415851
568,1436624574064,62.7883835882634
569,1436624574803,35.5476232567793
570,1436624575583,57.321882934499
571,1436624576280,47.6211343481232
572,1436624576944,42.1648429316821
573,1436624577668,53.9227110566751
574,1436624578397,38.5047540096237
575,1436624579137,43.4308729677064
