id,attr_time,attr_db
1,1436624160120,42.4010910018647
2,1436624160826,43.5837439140071
3,1436624161575,44.1283291762242
4,1436624162308,43.879325675951
5,1436624163036,44.4546705601059
6,1436624163788,43.503321914978
7,1436624164462,43.5544721993279
8,1436624165066,41.8075230269896
9,1436624165743,43.4534403752787
10,1436624166465,43.7369608388467
11,1436624167189,43.1701120795719
12,1436624167941,41.2680997368371
13,1436624168667,42.8088320909445
14,1436624169378,40.8764650158904
15,1436624170098,41.08044543789
16,1436624170821,41.1642473765611
17,1436624171559,38.7845358707173
18,1436624172295,39.0387393817444
19,1436624173029,40.0726674225469
20,1436624173776,42.9945816253777
21,1436624174505,39.5999307130453
22,1436624175227,40.8269238378058
23,1436624175966,41.3289303332272
24,1436624176693,43.4316666144915
25,1436624177420,43.7418257120066
26,1436624178154,46.5122953562672
27,1436624178999,38.3377457839634
28,1436624179601,37.3936059543381
29,1436624180274,50.5792360466761
30,1436624181013,42.7197667983857
31,1436624181750,37.9023676535298
32,1436624182489,43.9550658629403
33,1436624183239,48.9402880192863
34,1436624183960,47.1378243175944
35,1436624184673,39.282361913298
36,1436624185364,47.3698596128942
37,1436624186116,36.2768264952926
38,1436624186830,32.172599763717
39,1436624188656,41.9465041053186
40,1436624189338,38.9908934633074
41,1436624190042,60.9615522423278
42,1436624190772,46.4438589898124
43,1436624191498,55.8304093027031
44,1436624192232,43.9667422747612
45,1436624192969,40.9703622708695
46,1436624194608,59.2558804370798
47,1436624195348,58.3221901734496
48,1436624196133,41.3932828537476
49,1436624196872,41.2617656586865
50,1436624197608,43.1712696655771
51,1436624198346,43.6929829338396
52,1436624199089,62.6899702707085
53,1436624199811,50.440000449497
54,1436624201620,41.224017713931
55,1436624202295,51.9647577805755
56,1436624203064,39.6513122136211
57,1436624203780,46.2373014082074
58,1436624204521,59.2648962082136
59,1436624205259,39.4524974260846
60,1436624206373,59.233751634202
61,1436624207103,43.1332187652783
62,1436624207863,42.944778958319
63,1436624208560,52.5208172937827
64,1436624209225,50.3397091070913
65,1436624209900,63.3926193329088
66,1436624210598,54.2952298101275
67,1436624211328,39.5770845177394
68,1436624212092,38.7783718145065
69,1436624212814,38.6136773895201
70,1436624213568,41.6834146586393
71,1436624214313,41.6419411714411
72,1436624215043,52.8928053921703
73,1436624215762,46.1505282585409
74,1436624216508,36.9938399971287
75,1436624217241,45.9509682795386
76,1436624217986,35.3893031128661
77,1436624218716,35.8708805051808
78,1436624219430,55.3332785262066
79,1436624220121,36.0671322098284
80,1436624220787,38.012126410503
81,1436624221528,54.3219445903587
82,1436624222268,57.9080491972321
83,1436624223009,55.802110118853
84,1436624223721,47.4671786914476
85,1436624224429,47.7712754186323
86,1436624225270,38.4652994052742
87,1436624225907,34.7118260378811
88,1436624226593,35.6749878360662
89,1436624227337,36.8133512703385
90,1436624228059,38.9664231146243
91,1436624228800,48.7837058253708
92,1436624229529,35.1892682003353
93,1436624230259,33.8760028124514
94,1436624230949,44.1611893882648
95,1436624231621,37.9660506397399
96,1436624232348,35.6401978721193
97,1436624233096,37.5809954353256
98,1436624233834,38.7343937961268
99,1436624234586,37.4525300492251
100,1436624235337,39.329768992123
101,1436624235996,45.511119340776
102,1436624236712,42.4305113530285
103,1436624237441,44.5700410856263
104,1436624238188,41.7539245610882
105,1436624238904,33.292177924783
106,1436624239615,29.8797271205785
107,1436624240337,29.4395894557536
108,1436624241018,33.0366929400614
109,1436624241693,32.06986979054
110,1436624242424,29.6934685908823
111,1436624243161,29.8196261796284
112,1436624243891,29.5776884552928
113,1436624244615,30.120637812533
114,1436624245371,35.0666368171252
115,1436624246027,34.4182671227496
116,1436624246758,44.9340425941148
117,1436624247482,54.9085702724645
118,1436624248212,46.1113100171846
119,1436624248958,38.9687327700094
120,1436624249661,28.6581569173044
121,1436624250378,40.93004529031
122,1436624251070,43.020177021924
123,1436624251717,40.9627646165154
124,1436624252464,49.6977528001787
125,1436624253230,54.7346825774423
126,1436624253967,44.8262689553351
127,1436624254692,49.1619304907679
128,1436624255421,53.0259937813467
129,1436624256123,49.378571547411
130,1436624256856,46.0787698158016
131,1436624257596,42.7819079259545
132,1436624258339,38.4888063884807
133,1436624259079,36.0902422245436
134,1436624259793,32.6833777836304
135,1436624260528,30.0274538954599
136,1436624261219,36.038776489152
137,1436624261916,42.7875974513508
138,1436624262616,24.4709661733033
139,1436624263276,54.2269084237543
140,1436624264004,41.8929916492864
141,1436624264735,41.8497704112853
142,1436624265424,27.6144583427057
143,1436624266008,21.7977716373836
144,1436624266703,45.9595826679911
145,1436624267427,53.0446155737207
146,1436624268158,42.2112135923709
147,1436624268878,31.8795197024515
148,1436624269628,37.6830860471668
149,1436624270377,40.423878100704
150,1436624271115,31.8327677326793
151,1436624271814,42.6553126240778
152,1436624272502,36.2104187858971
153,1436624273246,31.3939616898666
154,1436624273992,29.8409746092872
155,1436624274713,34.2878508692296
156,1436624275443,27.1927239799742
157,1436624276210,39.7722210957744
158,1436624276899,26.6112249996486
159,1436624277527,34.9518400800444
160,1436624278173,32.0420216900847
161,1436624278900,32.3926197832472
162,1436624279648,48.1174414801683
163,1436624280382,49.8578262922398
164,1436624281138,40.4265395105259
165,1436624281816,39.9420999052147
166,1436624282550,32.9960717513464
167,1436624283288,47.9585275548586
168,1436624284033,42.3652832563853
169,1436624284755,43.4129781958164
170,1436624285493,31.9627125787204
171,1436624286197,41.4585026573012
172,1436624286831,39.9925262962812
173,1436624287551,35.1552426645823
174,1436624288272,29.707998375409
175,1436624289006,29.4978924893539
176,1436624289756,35.8815769596652
177,1436624290504,46.9824267166746
178,1436624291230,64.7464968389158
179,1436624291969,56.240719141633
180,1436624292662,55.8251489605246
181,1436624293401,40.2748279312013
182,1436624294192,48.5929965590923
183,1436624294903,40.5616200965829
184,1436624295640,31.3469667678027
185,1436624296373,25.6600181710101
186,1436624297117,24.1895501610965
187,1436624297842,61.8302868388846
188,1436624298591,34.1262525627961
189,1436624299333,30.7915231308089
190,1436624300057,39.2381130218482
191,1436624300754,25.5168413581112
192,1436624301494,56.2444136454582
193,1436624302220,51.0385478596435
194,1436624302877,30.7259585677061
195,1436624303617,46.9307996962451
196,1436624304377,20.5183797151569
197,1436624305138,30.1203646914419
198,1436624305869,47.0626616828584
199,1436624306542,16.5499174446357
200,1436624307184,37.3968240310981
201,1436624307917,38.0516482527812
202,1436624308658,49.1461648766017
203,1436624309403,49.8318537587836
204,1436624310161,22.7221842388599
205,1436624310893,44.3835333601684
206,1436624311636,42.5390497117846
207,1436624312325,38.263619310275
208,1436624313004,35.1416902192716
209,1436624313723,42.0104584929629
210,1436624314470,34.166238671656
211,1436624315221,49.6284853047583
212,1436624315896,28.8483043336715
213,1436624316514,29.610079292865
214,1436624317214,48.7787327684541
215,1436624317945,18.9420260219921
216,1436624318671,28.4604730629595
217,1436624319413,13.6662621990664
218,1436624320152,39.4631500067273
219,1436624320893,19.5839039190242
220,1436624321610,19.5786807229133
221,1436624322346,33.8347397282879
222,1436624323042,20.2668038787936
223,1436624323788,48.7257502589202
224,1436624324518,22.200179858124
225,1436624325245,43.7095982011545
226,1436624325988,40.0323190300024
227,1436624326779,32.0155082807628
228,1436624327385,34.9347009434458
229,1436624328127,16.4271525604058
230,1436624328864,17.5341925165768
231,1436624329611,48.6250602067919
232,1436624330381,39.0304882014446
233,1436624331135,39.2413888120914
234,1436624331877,39.3268811700867
235,1436624332598,33.0414495848932
236,1436624333293,41.9667375149135
237,1436624333961,42.2272775115665
238,1436624334705,50.4507297440393
239,1436624335504,49.2815819226811
240,1436624336255,48.2209883894608
241,1436624337004,59.986258608266
242,1436624337745,60.2216871350651
243,1436624338499,25.3782373295347
244,1436624339234,18.3256654989647
245,1436624339986,22.4942606070703
246,1436624340725,42.9384800903429
247,1436624341453,35.7947524141223
248,1436624342176,32.172595329805
249,1436624342889,18.9909618834803
250,1436624343587,24.90337943307
251,1436624344316,38.9013755777855
252,1436624345035,24.4729217337186
253,1436624345780,39.5095105308933
254,1436624346460,46.1332168775844
255,1436624347065,20.0595040768659
256,1436624347743,14.6674579924712
257,1436624348481,11.7837658406216
258,1436624349245,17.3432434572602
259,1436624349951,42.0644599086501
260,1436624350623,15.3171902772209
261,1436624351364,32.3702494977644
262,1436624352125,22.3034036869752
263,1436624352870,36.0254241847931
264,1436624353567,16.6586884811269
265,1436624354242,23.8191630420455
266,1436624354941,17.1206459220795
267,1436624355678,28.4651493875599
268,1436624356402,19.3272011958057
269,1436624357128,19.2595516152625
270,1436624357820,24.602866366877
271,1436624358554,20.5008131369996
272,1436624359290,20.9742839176582
273,1436624360015,39.5796083854554
274,1436624360753,36.6729871800973
275,1436624361524,25.7361782304678
276,1436624362252,23.0635888649326
277,1436624362993,19.8773426833693
278,1436624363725,20.4814387559583
279,1436624364351,24.4328880472954
280,1436624365093,27.4315089656578
281,1436624365764,22.6535289203514
282,1436624366452,35.5368335008099
283,1436624367200,22.5256637615681
284,1436624367925,25.1776783105931
285,1436624368660,63.0330059688373
286,1436624369391,45.8296076374213
287,1436624370122,52.5498740868368
288,1436624370874,48.298606544554
289,1436624371590,57.6989152187942
290,1436624372317,34.5375343829814
291,1436624373056,49.840223686488
292,1436624373756,37.071207891931
293,1436624374440,36.8107580930209
294,1436624375177,38.5714377223823
295,1436624375901,34.0972048839946
296,1436624376622,38.4594014058956
297,1436624377353,66.0530357829115
298,1436624378073,49.5492522404405
299,1436624378748,51.4239183070097
300,1436624379473,51.086456829156
301,1436624380195,43.8267664976251
302,1436624380916,47.2613445305716
303,1436624381660,37.4825583488488
304,1436624382398,40.9341349261687
305,1436624383139,58.9274771761313
306,1436624383874,46.0451115260096
307,1436624384552,34.78000461245
308,1436624385292,35.5418514024232
309,1436624386030,35.1623592731947
310,1436624386761,33.4913066691878
311,1436624387562,33.8234326829435
312,1436624388341,30.4023994683021
313,1436624389020,25.1422915075531
314,1436624389744,62.866257156607
315,1436624390474,59.9929323093997
316,1436624391175,60.2820179066556
317,1436624392558,46.4959066412853
318,1436624393303,38.3458216817977
319,1436624394036,24.13153799493
320,1436624394712,25.4450226219253
321,1436624395379,29.8841277600088
322,1436624396155,54.6926371384933
323,1436624396878,42.5436612582446
324,1436624397601,45.1690970926498
325,1436624398334,26.8939259948287
326,1436624399116,37.5547754381636
327,1436624399837,30.1519332942152
328,1436624400583,19.2633200606502
329,1436624401369,47.0014807601493
330,1436624402596,51.0787108589468
331,1436624403323,34.3486028196948
332,1436624404047,45.0347339153107
333,1436624404764,26.5063395667152
334,1436624405442,42.8630684050486
335,1436624406155,29.670313838134
336,1436624406797,47.7894529068603
337,1436624407461,40.8706956320378
338,1436624408095,28.1667078279613
339,1436624408742,54.1886908008906
340,1436624409474,22.9912342341889
341,1436624410199,25.3485738371145
342,1436624410941,29.1422395109134
343,1436624411694,29.7280495220537
344,1436624412442,21.8744690326755
345,1436624413186,36.2502257101032
346,1436624413923,40.7918714872532
347,1436624414653,40.3435808004121
348,1436624415365,30.1030645277638
349,1436624416089,31.9073426206786
350,1436624417945,38.8563454457683
351,1436624418767,47.1095175985373
352,1436624419967,33.6615008145057
353,1436624420625,35.90223136288
354,1436624421317,48.0260778712357
355,1436624422046,20.3703994697708
356,1436624422665,22.5870941278562
357,1436624423356,25.0438403327053
358,1436624424079,52.8093782042545
359,1436624424817,25.6399091967654
360,1436624425416,23.2242242168361
361,1436624426682,23.8572960819437
362,1436624427349,24.5002234667096
363,1436624428077,35.4511381998523
364,1436624428737,23.1404489507037
365,1436624429455,22.2884435868855
366,1436624430186,21.8653861395559
367,1436624430987,24.5060047767538
368,1436624431671,24.3835076509844
369,1436624432340,29.8833279705876
370,1436624433086,30.047039058268
371,1436624433813,23.9598465166832
372,1436624434501,48.7212451588068
373,1436624435122,41.6737442557753
374,1436624435807,25.4342958700079
375,1436624436525,24.9206480440858
376,1436624437234,27.8184336362431
377,1436624437976,46.485385017295
378,1436624438762,54.3868707647061
379,1436624439482,35.3235789166799
380,1436624440211,27.8868425450656
381,1436624440944,43.247470777268
382,1436624441738,53.9830710528692
383,1436624442471,47.4070070728971
384,1436624443192,40.4199092371632
385,1436624443938,43.0046312017356
386,1436624444661,48.064401740347
387,1436624445374,35.0683717619432
388,1436624446087,28.8548623019248
389,1436624446847,28.2473131978367
390,1436624447551,28.9163621000786
391,1436624448191,33.0109398912582
392,1436624448884,46.2367317342097
393,1436624449602,63.7933724445464
394,1436624450363,49.8731015122003
395,1436624451063,47.5162155676098
396,1436624451818,38.2979507545516
397,1436624452556,28.0983067070674
398,1436624453310,35.6609016393286
399,1436624454050,28.6490776734655
400,1436624454787,43.7130886371334
401,1436624455508,38.2873440718613
402,1436624456227,42.4643387540379
403,1436624456946,30.5867423941368
404,1436624457684,59.2274831874782
405,1436624458411,43.8952326539841
406,1436624459195,52.8418544758315
407,1436624459932,38.7475290104432
408,1436624460673,53.6579642359979
409,1436624461393,50.200194573626
410,1436624462076,51.7928526361028
411,1436624462838,34.330375189181
412,1436624463600,31.7312706119767
413,1436624464322,27.8469768796261
414,1436624465042,27.1253310854361
415,1436624465766,43.7428663477083
416,1436624466464,53.5834063283193
417,1436624467092,33.2787816853
418,1436624467761,44.1955834912636
419,1436624468430,46.9112083055796
420,1436624469182,47.7881648690008
421,1436624469888,46.7917741886026
422,1436624470599,30.7074265690886
423,1436624471385,32.2510752805723
424,1436624472134,44.4657929814337
425,1436624472875,36.8389256491754
426,1436624473622,44.2834623035057
427,1436624474339,45.3158855494048
428,1436624475062,32.4411195345172
429,1436624475792,30.6717502328628
430,1436624476484,32.8541530210141
431,1436624477117,38.8176376603729
432,1436624477928,41.0152413847536
433,1436624478655,30.0719238007136
434,1436624479387,44.3676317275601
435,1436624480130,39.2030261452096
436,1436624480867,39.8825328806021
437,1436624481562,30.7166725039793
438,1436624482216,29.2623627169639
439,1436624482929,59.7242625477218
440,1436624483660,61.8944030065736
441,1436624484391,53.4747894109601
442,1436624485114,47.4846124634955
443,1436624485837,35.866578066278
444,1436624486542,52.7049907478613
445,1436624487203,46.5811038104726
446,1436624487912,32.7186880983802
447,1436624488581,29.9095958514778
448,1436624489305,30.3631457213255
449,1436624490056,56.6443596218389
450,1436624490794,60.1240213259213
451,1436624491528,56.5693915300361
452,1436624492255,61.882634990164
453,1436624492902,41.1360708384214
454,1436624493629,30.3188321370758
455,1436624494335,38.2565126915223
456,1436624495072,39.2847795260668
457,1436624495792,50.9542572188626
458,1436624496527,37.5367047336988
459,1436624497187,47.1475216792723
460,1436624497874,49.3600073892101
461,1436624498603,47.4809472340561
462,1436624499329,41.4154464629706
463,1436624499914,42.4640692775076
464,1436624500596,43.4985110237192
465,1436624501331,32.5984915623827
466,1436624502070,32.266483654469
467,1436624502793,33.5288480455295
468,1436624503537,51.3393980054202
469,1436624504270,32.4616621994061
470,1436624505014,54.3711365839735
471,1436624505751,63.3863896717206
472,1436624506482,54.1520393335839
473,1436624507159,48.792844562355
474,1436624507804,41.0488906308447
475,1436624508522,31.6412931064747
476,1436624509269,43.1707757182476
477,1436624509976,41.1265435557651
478,1436624510641,29.8518139619588
479,1436624511363,31.0028961575248
480,1436624512031,31.3812362065963
481,1436624512737,31.2449152618007
482,1436624513483,29.9266762297944
483,1436624514224,38.5070106161523
484,1436624514966,36.7421331044271
485,1436624515694,49.764010415636
486,1436624516418,26.0295864499473
487,1436624517112,25.0894904451113
488,1436624517776,23.1912706702718
489,1436624518544,44.7959311329749
490,1436624519272,32.9669301503464
491,1436624520000,47.4554943605237
492,1436624520730,29.2043254331933
493,1436624521410,27.5282155325783
494,1436624522127,40.4225321974729
495,1436624522862,34.910407212474
496,1436624523596,38.101286569191
497,1436624524337,35.1244210706259
498,1436624525069,37.2526807102563
499,1436624525795,27.6259752649079
500,1436624526522,43.4807684362462
501,1436624527244,36.6325464604377
502,1436624527892,33.8308028908751
503,1436624528485,38.4126368336205
504,1436624529162,25.3356674682621
505,1436624529888,51.3518381937503
506,1436624530606,25.0546317127306
507,1436624531379,26.2591254805099
508,1436624532140,24.1818241631737
509,1436624532875,25.6890212853903
510,1436624533611,25.7968066616162
511,1436624534329,23.1003156067946
512,1436624535060,27.7696638840181
513,1436624535803,36.9867977803072
514,1436624536586,34.9774822613038
515,1436624537303,26.3450271833273
516,1436624538017,20.9873734416223
517,1436624538659,22.7781331417669
518,1436624539361,42.7894982124989
519,1436624540135,29.3123509193447
520,1436624540862,33.7387525718271
521,1436624541613,20.1596563553271
522,1436624542312,24.7836754666213
523,1436624542957,25.3181322051158
524,1436624543647,23.8422897305395
525,1436624544375,23.9431819461394
526,1436624545107,38.2997998977807
527,1436624545904,16.8534383911212
528,1436624546640,19.0629727842922
529,1436624547321,16.284698839322
530,1436624547960,17.493972725759
531,1436624548638,21.2808796863007
532,1436624549370,24.1688684875641
533,1436624550107,27.4405449104703
534,1436624550865,16.0477848547086
535,1436624551604,17.7945308660128
536,1436624552378,34.1336588790706
537,1436624553104,28.5390600295224
538,1436624553839,16.4768456597833
539,1436624554570,32.0621688935851
540,1436624555296,35.9922123538341
541,1436624556045,22.3763070086212
542,1436624556774,19.5203405092821
543,1436624557497,18.2438366967667
544,1436624558188,50.4989943938798
545,1436624558834,25.0557638509347
546,1436624559542,27.6458268136152
547,1436624560271,28.1538315480067
548,1436624560990,19.4457049017952
549,1436624561793,23.5491064464248
550,1436624562469,30.168510248679
551,1436624563223,34.385742738686
552,1436624563952,22.6275047227266
553,1436624564671,27.5045744000076
554,1436624565394,30.1599759713686
555,1436624566127,28.2926586307305
556,1436624566888,37.5148744152688
557,1436624567668,35.1705637505914
558,1436624568464,32.299374508785
559,1436624569076,41.1028740846234
560,1436624569806,37.6686276902725
561,1436624570525,32.2890470448739
562,1436624571217,35.3659207850694
563,1436624571927,58.5988925025228
564,1436624572616,37.1890185094013
565,1436624573348,54.0991958571401
566,1436624574081,54.5146064263901
567,1436624574824,58.0928783467658
568,1436624575558,44.5559096304545
569,1436624576285,57.1529874124055
570,1436624577009,27.8988405962186
571,1436624577744,28.418598851153
572,1436624578459,39.8139473643908
573,1436624579176,44.7864994273395
574,1436624579896,35.9122828273322
575,1436624580639,34.9596767119192
