id,attr_time,attr_x,attr_y,attr_z
1,1436623618136,-9.072,-39.002,17.852
2,1436623618154,-9.072,-39.002,17.852
3,1436623618173,-9.072,-39.002,17.852
4,1436623618209,-9.072,-39.002,17.852
5,1436623618220,-9.072,-39.002,17.852
6,1436623618290,-9.072,-39.002,17.852
7,1436623618316,-9.072,-39.002,17.852
8,1436623618317,-9.072,-39.002,17.852
9,1436623618318,-9.072,-39.002,17.852
10,1436623618319,-9.072,-39.002,17.852
11,1436623618334,-9.072,-39.002,17.852
12,1436623618354,-9.072,-39.002,17.852
13,1436623618374,-9.072,-39.002,17.852
14,1436623618394,-9.072,-39.002,17.852
15,1436623618414,-9.072,-39.002,17.852
16,1436623618434,-9.072,-39.002,17.852
17,1436623618454,-9.072,-39.002,17.852
18,1436623618477,-9.072,-39.002,17.852
19,1436623618497,-9.072,-39.002,17.852
20,1436623618519,-9.072,-39.002,17.852
21,1436623618541,-9.382,-39.002,17.852
22,1436623618556,-9.382,-39.002,17.852
23,1436623618577,-9.382,-39.002,17.852
24,1436623618597,-9.382,-39.002,17.852
25,1436623618614,-9.382,-39.002,17.852
26,1436623618635,-9.382,-39.002,17.852
27,1436623618660,-9.382,-39.002,17.852
28,1436623618675,-9.382,-39.002,17.852
29,1436623618697,-9.382,-39.002,17.852
30,1436623618715,-9.382,-39.002,17.852
31,1436623618734,-9.382,-39.002,18.159
32,1436623618754,-9.382,-39.002,18.159
33,1436623618776,-9.382,-39.002,18.159
34,1436623618799,-9.382,-39.002,18.159
35,1436623618817,-9.382,-39.002,18.159
36,1436623618834,-9.382,-39.002,18.159
37,1436623618854,-9.382,-39.002,18.159
38,1436623618875,-9.382,-39.002,18.159
39,1436623618895,-9.382,-39.002,18.159
40,1436623618915,-9.382,-39.002,18.159
41,1436623618934,-9.382,-39.002,18.159
42,1436623618975,-9.382,-39.002,18.159
43,1436623618976,-9.382,-39.002,18.159
44,1436623618994,-9.382,-39.002,18.159
45,1436623619016,-9.382,-39.002,18.159
46,1436623619035,-9.382,-39.002,18.159
47,1436623619054,-9.382,-39.002,18.159
48,1436623619075,-9.382,-39.002,18.159
49,1436623619110,-9.382,-39.002,18.159
50,1436623619125,-9.382,-39.002,18.159
51,1436623619135,-9.382,-39.002,18.159
52,1436623619155,-9.382,-39.002,18.159
53,1436623619175,-9.382,-39.002,18.159
54,1436623619194,-9.382,-39.002,18.159
55,1436623619214,-9.382,-39.002,18.159
56,1436623619234,-9.382,-39.002,18.159
57,1436623619254,-9.382,-39.002,18.159
58,1436623619274,-9.382,-39.002,18.159
59,1436623619294,-9.382,-39.002,18.159
60,1436623619318,-9.382,-39.002,18.159
61,1436623619338,-9.382,-39.002,18.159
62,1436623619356,-9.382,-39.002,18.159
63,1436623619374,-9.382,-39.002,18.159
64,1436623619396,-9.382,-39.002,18.159
65,1436623619418,-9.382,-39.002,18.159
66,1436623619438,-9.382,-39.002,18.159
67,1436623619459,-9.382,-39.002,18.159
68,1436623619478,-9.382,-39.002,18.159
69,1436623619495,-9.382,-39.002,18.159
70,1436623619516,-9.382,-39.002,18.159
71,1436623619535,-9.382,-39.002,18.159
72,1436623619557,-9.382,-39.002,18.159
73,1436623619577,-9.382,-39.002,18.159
74,1436623619597,-9.382,-39.002,18.159
75,1436623619614,-9.382,-39.002,18.159
76,1436623619634,-9.382,-38.694,18.159
77,1436623619665,-9.382,-38.694,18.159
78,1436623619681,-9.382,-38.694,18.159
79,1436623619697,-9.382,-38.694,18.159
80,1436623619715,-9.382,-38.694,18.527
81,1436623619737,-9.382,-38.694,18.527
82,1436623619755,-9.382,-38.694,18.527
83,1436623619775,-9.382,-38.694,18.527
84,1436623619796,-9.382,-38.351,18.904
85,1436623619818,-9.382,-38.351,18.904
86,1436623619839,-9.382,-38.351,18.904
87,1436623619857,-9.382,-38.351,19.277
88,1436623619875,-9.733,-38.351,19.277
89,1436623619895,-9.733,-38.008,19.277
90,1436623619917,-9.733,-38.008,19.757
91,1436623619939,-9.733,-38.008,19.757
92,1436623619958,-10.052,-37.635,20.283
93,1436623619979,-10.052,-37.635,20.968
94,1436623619999,-10.052,-37.635,21.592
95,1436623620018,-10.409,-37.222,22.099
96,1436623620037,-10.409,-37.222,22.099
97,1436623620057,-10.409,-37.222,22.099
98,1436623620077,-10.801,-36.793,22.558
99,1436623620099,-10.801,-36.793,22.558
100,1436623620119,-10.801,-36.793,22.558
101,1436623620139,-11.117,-36.425,22.558
102,1436623620158,-11.117,-36.425,22.192
103,1436623620178,-11.117,-36.425,22.192
104,1436623620199,-11.117,-36.425,22.192
105,1436623620219,-11.117,-36.425,22.192
106,1436623620239,-11.117,-36.425,21.73
107,1436623620258,-10.615,-36.425,20.957
108,1436623620288,-9.852,-36.425,20.562
109,1436623620345,-9.272,-36.761,19.955
110,1436623620346,-8.734,-37.28,19.955
111,1436623620347,-8.734,-37.28,19.955
112,1436623620364,-8.38,-37.707,19.291
113,1436623620377,-8.38,-37.707,19.291
114,1436623620398,-8.38,-37.707,19.291
115,1436623620416,-8.38,-37.707,19.291
116,1436623620436,-8.38,-37.707,19.291
117,1436623620458,-8.38,-37.707,19.291
118,1436623620477,-8.38,-37.707,19.291
119,1436623620496,-8.38,-38.124,19.291
120,1436623620518,-8.38,-38.124,19.776
121,1436623620543,-8.38,-38.124,20.22
122,1436623620560,-8.38,-38.124,20.851
123,1436623620579,-8.38,-38.124,20.851
124,1436623620599,-8.38,-38.124,20.851
125,1436623620617,-8.38,-38.124,20.414
126,1436623620636,-8.062,-38.124,20.414
127,1436623620657,-8.062,-38.124,19.476
128,1436623620678,-8.062,-38.124,18.727
129,1436623620699,-8.062,-38.124,18.383
130,1436623620719,-8.062,-38.124,17.588
131,1436623620740,-7.196,-38.124,17.202
132,1436623620757,-6.645,-38.124,17.202
133,1436623620780,-6.304,-38.578,16.319
134,1436623620796,-6.304,-38.578,16.319
135,1436623620817,-5.868,-38.955,16.319
136,1436623620836,-5.868,-38.955,16.319
137,1436623620857,-5.868,-38.955,17.15
138,1436623620878,-5.868,-38.955,16.636
139,1436623620902,-5.868,-38.955,16.636
140,1436623620920,-5.868,-39.344,16.989
141,1436623620936,-5.868,-39.344,16.989
142,1436623620958,-5.868,-39.344,16.989
143,1436623620977,-5.868,-39.344,17.39
144,1436623620997,-5.868,-39.344,17.39
145,1436623621018,-5.868,-39.683,17.39
146,1436623621101,-5.868,-39.683,16.865
147,1436623621102,-5.868,-39.683,19.088
148,1436623621103,-6.851,-39.683,19.528
149,1436623621104,-7.643,-39.375,19.528
150,1436623621133,-7.643,-39.375,19.528
151,1436623621136,-7.968,-38.952,20.103
152,1436623621162,-7.968,-38.952,19.68
153,1436623621177,-7.968,-38.952,18.048
154,1436623621198,-7.54,-38.952,18.048
155,1436623621217,-7.54,-38.952,17.562
156,1436623621237,-7.54,-38.952,16.999
157,1436623621259,-7.54,-38.952,16.999
158,1436623621277,-7.139,-38.952,16.21
159,1436623621297,-7.139,-38.952,16.21
160,1436623621319,-7.139,-38.952,16.21
161,1436623621340,-7.139,-38.952,16.21
162,1436623621360,-7.139,-38.952,16.21
163,1436623621380,-7.139,-38.952,16.21
164,1436623621401,-7.51,-38.952,16.21
165,1436623621420,-7.51,-38.952,16.601
166,1436623621439,-7.51,-38.952,16.601
167,1436623621458,-7.51,-38.952,16.601
168,1436623621477,-7.51,-39.299,16.601
169,1436623621501,-7.51,-39.299,16.957
170,1436623621519,-7.51,-39.299,16.957
171,1436623621544,-7.51,-39.299,16.957
172,1436623621561,-7.51,-39.608,16.496
173,1436623621583,-7.51,-39.608,16.496
174,1436623621598,-8.583,-39.608,20.31
175,1436623621618,-9.829,-39.08,20.31
176,1436623621638,-9.829,-38.632,19.917
177,1436623621657,-9.829,-38.632,20.372
178,1436623621677,-9.829,-38.311,19.964
179,1436623621697,-9.463,-38.311,19.296
180,1436623621717,-9.463,-38.311,18.76
181,1436623621737,-8.758,-38.311,17.347
182,1436623621758,-8.758,-38.311,17.675
183,1436623621777,-8.758,-38.311,17.132
184,1436623621852,-8.422,-38.311,16.45
185,1436623621853,-8.422,-38.311,15.985
186,1436623621854,-7.936,-38.661,15.985
187,1436623621863,-7.936,-38.661,15.985
188,1436623621878,-7.936,-38.661,15.985
189,1436623621900,-7.215,-39.137,15.682
190,1436623621917,-7.215,-39.137,15.382
191,1436623621943,-7.215,-39.137,15.382
192,1436623621959,-7.215,-39.137,15.695
193,1436623621979,-7.215,-39.137,15.695
194,1436623621999,-7.795,-39.137,16.03
195,1436623622019,-7.795,-39.137,16.03
196,1436623622041,-7.795,-39.447,16.03
197,1436623622060,-7.795,-39.447,16.407
198,1436623622080,-7.795,-39.447,16.407
199,1436623622103,-7.478,-39.447,17.086
200,1436623622118,-7.478,-39.447,17.086
201,1436623622139,-7.478,-39.447,17.086
202,1436623622159,-7.478,-39.447,17.086
203,1436623622178,-7.911,-39.447,17.645
204,1436623622198,-7.911,-39.447,17.645
205,1436623622219,-7.911,-39.447,16.535
206,1436623622239,-7.911,-39.447,16.535
207,1436623622260,-7.911,-39.447,16.535
208,1436623622281,-8.216,-39.447,15.917
209,1436623622297,-8.216,-39.447,15.362
210,1436623622320,-8.216,-39.447,14.851
211,1436623622339,-8.216,-39.447,14.851
212,1436623622359,-8.57,-39.447,14.524
213,1436623622382,-8.57,-39.447,14.524
214,1436623622399,-8.57,-39.447,13.8
215,1436623622419,-8.57,-39.447,13.414
216,1436623622437,-8.57,-39.447,13.414
217,1436623622458,-8.57,-39.447,13.414
218,1436623622478,-8.57,-39.447,13.414
219,1436623622609,-8.57,-39.822,14.091
220,1436623622610,-8.57,-39.822,14.091
221,1436623622611,-8.57,-39.822,14.466
222,1436623622612,-8.57,-39.822,14.466
223,1436623622613,-8.57,-40.161,14.888
224,1436623622614,-8.57,-40.161,14.888
225,1436623622631,-8.57,-40.161,16.938
226,1436623622639,-8.949,-40.161,17.26
227,1436623622660,-8.949,-40.161,16.47
228,1436623622678,-8.949,-40.161,17.533
229,1436623622698,-8.949,-39.781,17.533
230,1436623622719,-9.294,-39.781,16.914
231,1436623622738,-9.294,-39.781,16.914
232,1436623622758,-9.294,-39.781,15.739
233,1436623622782,-9.294,-39.781,14.999
234,1436623622799,-9.294,-39.781,14.123
235,1436623622820,-9.294,-39.471,13.729
236,1436623622843,-9.294,-39.471,13.075
237,1436623622864,-9.294,-39.471,12.673
238,1436623622882,-9.294,-39.471,12.223
239,1436623622901,-9.294,-39.471,12.223
240,1436623622919,-9.294,-39.471,12.223
241,1436623622938,-9.294,-39.471,12.223
242,1436623622959,-9.294,-39.793,12.223
243,1436623622980,-9.294,-39.793,12.223
244,1436623623002,-8.956,-39.793,12.223
245,1436623623019,-8.956,-39.793,12.869
246,1436623623043,-8.956,-40.159,13.171
247,1436623623062,-8.956,-40.159,13.171
248,1436623623082,-8.607,-40.159,13.171
249,1436623623101,-8.607,-40.493,13.987
250,1436623623120,-8.607,-40.493,13.987
251,1436623623139,-8.607,-40.493,14.915
252,1436623623161,-8.607,-40.493,17.561
253,1436623623181,-8.607,-40.493,17.092
254,1436623623201,-8.607,-40.493,17.092
255,1436623623221,-8.607,-40.493,18.095
256,1436623623240,-8.607,-40.18,17.596
257,1436623623259,-8.607,-40.18,16.865
258,1436623623286,-8.607,-40.18,16.014
259,1436623623347,-8.607,-40.18,15.277
260,1436623623348,-8.607,-40.18,14.048
261,1436623623349,-8.607,-40.18,13.163
262,1436623623370,-8.607,-40.18,13.163
263,1436623623379,-8.302,-40.18,13.163
264,1436623623409,-7.817,-40.18,13.488
265,1436623623420,-7.415,-40.18,13.488
266,1436623623442,-7.101,-40.18,12.921
267,1436623623461,-7.101,-40.18,12.921
268,1436623623480,-7.101,-40.18,12.921
269,1436623623501,-7.101,-40.18,12.921
270,1436623623528,-7.101,-40.18,12.921
271,1436623623551,-7.101,-40.18,12.921
272,1436623623565,-7.101,-40.18,13.249
273,1436623623582,-7.101,-40.583,13.249
274,1436623623600,-6.756,-40.583,13.706
275,1436623623620,-6.756,-40.583,14.123
276,1436623623639,-6.756,-40.583,14.123
277,1436623623659,-6.756,-40.583,14.123
278,1436623623679,-6.756,-40.583,15.245
279,1436623623700,-6.756,-40.583,17.671
280,1436623623721,-6.756,-40.583,17.671
281,1436623623741,-6.756,-40.583,18.041
282,1436623623762,-7.125,-40.583,17.526
283,1436623623780,-7.125,-40.176,17.526
284,1436623623802,-7.125,-40.176,16.218
285,1436623623823,-7.125,-40.176,15.553
286,1436623623843,-7.125,-40.176,14.189
287,1436623623863,-7.45,-40.176,13.052
288,1436623623882,-7.45,-40.176,12.5
289,1436623623901,-7.45,-40.176,12.19
290,1436623623920,-7.45,-40.176,11.683
291,1436623623940,-7.45,-40.176,12.202
292,1436623623962,-7.124,-40.176,11.642
293,1436623623984,-7.124,-40.176,11.239
294,1436623624004,-7.124,-40.176,11.239
295,1436623624024,-7.124,-40.176,11.239
296,1436623624041,-7.124,-40.518,11.721
297,1436623624110,-7.124,-40.518,12.068
298,1436623624111,-7.124,-40.518,12.506
299,1436623624112,-7.124,-40.518,13.529
300,1436623624124,-7.124,-40.518,13.529
301,1436623624139,-6.774,-40.832,13.529
302,1436623624167,-6.774,-40.832,14.141
303,1436623624180,-6.774,-40.832,14.141
304,1436623624201,-6.774,-40.832,15.594
305,1436623624221,-6.774,-40.832,18.548
306,1436623624239,-8.959,-39.328,21.568
307,1436623624262,-9.642,-38.71,20.565
308,1436623624315,-9.642,-38.71,20.198
309,1436623624316,-9.642,-38.71,20.198
310,1436623624370,-9.255,-38.71,20.198
311,1436623624371,-8.857,-38.71,19.323
312,1436623624372,-8.366,-39.126,17.781
313,1436623624380,-8.026,-39.126,17.195
314,1436623624400,-8.026,-39.126,16.378
315,1436623624420,-7.487,-39.529,15.805
316,1436623624442,-7.487,-39.529,15.386
317,1436623624464,-6.771,-39.529,15.756
318,1436623624482,-6.771,-39.529,15.756
319,1436623624503,-6.283,-39.529,15.756
320,1436623624520,-6.283,-39.529,15.411
321,1436623624549,-6.283,-39.529,16.253
322,1436623624560,-6.283,-39.529,16.253
323,1436623624580,-6.643,-39.529,16.253
324,1436623624600,-6.643,-39.529,15.884
325,1436623624622,-6.643,-39.529,15.512
326,1436623624642,-6.643,-39.529,16.3
327,1436623624662,-6.643,-39.529,16.685
328,1436623624681,-6.643,-39.529,17.131
329,1436623624704,-6.643,-39.529,17.131
330,1436623624723,-6.643,-39.529,17.131
331,1436623624743,-6.643,-39.529,17.817
332,1436623624765,-6.643,-39.529,20.991
333,1436623624785,-6.643,-39.529,20.991
334,1436623624804,-7.269,-39.529,19.934
335,1436623624823,-7.269,-39.529,20.379
336,1436623624846,-7.269,-39.125,20.379
337,1436623624921,-7.269,-39.125,19.21
338,1436623624922,-7.269,-39.125,18.08
339,1436623624923,-7.269,-39.125,17.118
340,1436623624924,-7.269,-39.125,16.494
341,1436623624941,-7.269,-39.125,16.061
342,1436623624967,-7.269,-39.125,15.605
343,1436623624981,-6.776,-39.125,15.605
344,1436623625003,-6.776,-39.125,15.605
345,1436623625021,-6.292,-39.125,15.605
346,1436623625040,-6.292,-39.125,15.605
347,1436623625061,-6.292,-39.125,15.951
348,1436623625082,-6.292,-39.125,15.951
349,1436623625101,-6.292,-39.125,15.951
350,1436623625121,-6.292,-39.439,16.29
351,1436623625141,-6.292,-39.439,16.29
352,1436623625161,-6.292,-39.439,16.29
353,1436623625182,-6.292,-39.439,16.819
354,1436623625201,-6.292,-39.439,17.166
355,1436623625220,-6.292,-39.816,17.166
356,1436623625241,-6.292,-39.816,17.166
357,1436623625260,-6.292,-39.816,17.816
358,1436623625281,-7.109,-39.816,19.653
359,1436623625303,-7.832,-39.816,19.653
360,1436623625321,-7.832,-39.816,19.165
361,1436623625342,-8.2,-39.308,19.165
362,1436623625364,-8.2,-39.308,19.165
363,1436623625383,-8.2,-39.308,18.455
364,1436623625403,-7.829,-39.308,17.805
365,1436623625422,-7.829,-39.308,17.131
366,1436623625441,-7.495,-39.308,16.482
367,1436623625460,-7.495,-39.308,15.814
368,1436623625480,-7.495,-39.308,15.4
369,1436623625503,-7.109,-39.308,14.527
370,1436623625524,-7.109,-39.308,14.527
371,1436623625552,-7.109,-39.308,14.527
372,1436623625564,-6.738,-39.749,13.984
373,1436623625639,-6.738,-39.749,13.984
374,1436623625643,-7.046,-39.749,13.984
375,1436623625644,-7.046,-39.749,14.439
376,1436623625645,-7.369,-39.749,14.439
377,1436623625662,-7.369,-39.749,14.851
378,1436623625681,-7.369,-39.749,15.272
379,1436623625703,-7.369,-40.093,15.272
380,1436623625721,-7.369,-40.093,15.776
381,1436623625745,-7.369,-40.093,15.776
382,1436623625761,-7.369,-40.093,15.776
383,1436623625782,-7.369,-40.093,16.862
384,1436623625804,-8.471,-40.093,18.948
385,1436623625823,-9.278,-40.093,18.948
386,1436623625844,-9.278,-39.788,18.191
387,1436623625862,-9.278,-39.788,19.148
388,1436623625881,-9.278,-39.326,18.576
389,1436623625901,-9.278,-39.326,18.576
390,1436623625922,-9.278,-39.326,17.35
391,1436623625942,-9.278,-39.326,16.714
392,1436623625962,-9.278,-39.326,16.273
393,1436623625985,-8.973,-39.326,15.643
394,1436623626002,-8.973,-39.326,15.643
395,1436623626022,-8.973,-39.326,15.643
396,1436623626043,-8.973,-39.326,15.643
397,1436623626065,-8.973,-39.326,15.643
398,1436623626083,-8.973,-39.326,15.156
399,1436623626103,-8.973,-39.326,15.948
400,1436623626123,-8.973,-39.326,15.509
401,1436623626143,-8.973,-39.326,16.001
402,1436623626190,-8.973,-39.326,15.681
403,1436623626191,-8.973,-39.326,16.084
404,1436623626203,-8.973,-39.326,16.448
405,1436623626223,-8.973,-39.326,16.448
406,1436623626242,-8.973,-39.326,16.448
407,1436623626263,-8.604,-39.682,16.448
408,1436623626284,-8.604,-39.682,16.07
409,1436623626303,-8.604,-39.682,16.613
410,1436623626322,-8.604,-39.682,18.731
411,1436623626378,-9.01,-39.682,18.333
412,1436623626379,-9.388,-39.682,17.901
413,1436623626394,-9.388,-39.3,18.649
414,1436623626402,-9.388,-39.3,18.649
415,1436623626422,-9.388,-39.3,17.532
416,1436623626443,-9.388,-39.3,16.896
417,1436623626461,-9.388,-39.3,16.314
418,1436623626482,-9.388,-39.3,15.653
419,1436623626504,-9.388,-39.3,15.653
420,1436623626524,-9.388,-39.3,14.863
421,1436623626543,-9.388,-39.3,14.863
422,1436623626569,-9.388,-39.3,14.227
423,1436623626583,-9.388,-39.3,14.227
424,1436623626604,-9.388,-39.3,13.882
425,1436623626624,-9.086,-39.3,13.882
426,1436623626644,-9.086,-39.3,13.882
427,1436623626662,-9.086,-39.3,14.192
428,1436623626682,-9.086,-39.3,14.916
429,1436623626702,-9.086,-39.3,14.916
430,1436623626722,-9.086,-39.698,14.916
431,1436623626742,-9.086,-39.698,15.328
432,1436623626764,-8.747,-39.698,15.328
433,1436623626784,-8.747,-39.698,15.629
434,1436623626804,-8.747,-40.016,15.629
435,1436623626822,-8.747,-40.016,15.629
436,1436623626842,-8.747,-40.016,18.382
437,1436623626862,-8.747,-40.016,18.382
438,1436623626883,-8.747,-39.695,17.926
439,1436623626902,-8.747,-39.695,18.545
440,1436623626923,-8.747,-39.695,18.545
441,1436623626943,-8.747,-39.338,17.785
442,1436623626963,-9.086,-39.338,17.092
443,1436623626983,-9.086,-39.338,16.566
444,1436623627004,-9.086,-39.338,16.566
445,1436623627024,-9.086,-39.338,15.878
446,1436623627044,-9.086,-39.338,15.878
447,1436623627065,-9.086,-39.338,15.878
448,1436623627183,-9.086,-39.338,15.878
449,1436623627184,-9.086,-39.338,15.516
450,1436623627185,-8.471,-39.338,15.516
451,1436623627186,-8.471,-39.338,15.124
452,1436623627187,-7.94,-39.338,15.444
453,1436623627188,-7.94,-39.338,15.109
454,1436623627225,-7.94,-39.338,15.56
455,1436623627226,-7.94,-39.338,15.56
456,1436623627255,-7.94,-39.338,15.901
457,1436623627264,-7.94,-39.338,15.901
458,1436623627283,-7.94,-39.656,15.901
459,1436623627305,-7.94,-39.656,15.901
460,1436623627323,-7.94,-39.656,15.901
461,1436623627343,-7.633,-39.656,16.508
462,1436623627366,-7.633,-39.656,18.257
463,1436623627383,-7.633,-39.656,20.249
464,1436623627406,-8.079,-39.656,19.491
465,1436623627425,-8.079,-39.656,19.491
466,1436623627446,-8.526,-39.302,20.091
467,1436623627463,-8.526,-39.302,19.415
468,1436623627485,-8.526,-39.302,18.031
469,1436623627508,-8.526,-39.302,17.32
470,1436623627527,-8.526,-38.983,17.32
471,1436623627545,-8.526,-38.983,16.133
472,1436623627566,-8.526,-38.983,15.261
473,1436623627584,-8.526,-38.983,14.936
474,1436623627608,-8.526,-38.983,14.936
475,1436623627623,-8.526,-38.983,14.338
476,1436623627644,-8.526,-38.983,13.594
477,1436623627664,-8.526,-38.983,14.468
478,1436623627684,-8.526,-39.347,13.645
479,1436623627705,-8.526,-39.347,13.645
480,1436623627727,-8.526,-39.347,14.318
481,1436623627746,-8.526,-39.347,14.318
482,1436623627765,-8.526,-39.718,14.318
483,1436623627786,-8.526,-39.718,14.318
484,1436623627806,-8.526,-39.718,15.016
485,1436623627828,-8.526,-39.718,15.356
486,1436623627846,-8.526,-40.037,15.667
487,1436623627932,-8.526,-40.037,15.353
488,1436623627933,-8.526,-40.037,15.669
489,1436623627934,-8.526,-40.037,17.356
490,1436623627935,-9.152,-40.037,18.687
491,1436623627947,-9.841,-40.037,17.864
492,1436623627964,-9.841,-39.714,17.864
493,1436623627984,-9.841,-39.714,18.258
494,1436623628003,-9.841,-39.395,17.684
495,1436623628023,-9.841,-39.395,16.908
496,1436623628044,-9.841,-39.395,16.151
497,1436623628064,-9.841,-39.395,15.357
498,1436623628083,-9.841,-39.395,14.88
499,1436623628104,-9.841,-39.395,14.047
500,1436623628124,-9.841,-39.395,13.708
501,1436623628145,-9.364,-39.395,13.708
502,1436623628163,-8.851,-39.395,13.708
503,1436623628184,-8.448,-39.395,13.114
504,1436623628204,-8.448,-39.395,12.765
505,1436623628227,-8.056,-39.714,12.765
