id,attr_time,attr_x,attr_y,attr_z
1,1436623618134,-23.62,-40.04,3.1
2,1436623618153,-23.62,-40.04,3.1
3,1436623618172,-23.62,-40.04,3.1
4,1436623618194,-23.62,-40.04,3.1
5,1436623618216,-23.62,-40.04,3.1
6,1436623618260,-23.62,-40.04,3.1
7,1436623618261,-23.62,-40.04,3.1
8,1436623618284,-23.62,-40.04,3.1
9,1436623618292,-23.62,-40.04,3.1
10,1436623618313,-23.62,-40.04,3.1
11,1436623618333,-23.316,-40.04,3.1
12,1436623618352,-23.316,-40.04,3.1
13,1436623618375,-23.316,-40.04,3.1
14,1436623618392,-23.316,-40.04,3.1
15,1436623618413,-23.316,-40.04,3.1
16,1436623618435,-23.316,-40.04,3.1
17,1436623618454,-23.316,-40.04,3.1
18,1436623618476,-23.316,-40.04,3.1
19,1436623618498,-23.316,-40.04,3.1
20,1436623618514,-23.316,-40.04,3.419
21,1436623618533,-23.316,-40.04,3.419
22,1436623618554,-23.316,-40.04,3.419
23,1436623618574,-23.316,-40.04,3.419
24,1436623618596,-23.316,-40.04,3.419
25,1436623618616,-23.316,-40.04,3.419
26,1436623618636,-23.316,-40.04,3.419
27,1436623618655,-23.316,-40.04,3.419
28,1436623618673,-23.316,-40.04,3.419
29,1436623618695,-23.316,-40.04,3.419
30,1436623618718,-23.316,-40.04,3.419
31,1436623618735,-23.316,-40.04,3.419
32,1436623618758,-23.316,-40.04,3.419
33,1436623618774,-23.316,-40.04,3.419
34,1436623618793,-23.316,-40.04,3.419
35,1436623618813,-23.316,-40.04,3.419
36,1436623618834,-23.316,-40.04,3.419
37,1436623618855,-23.316,-40.04,3.419
38,1436623618875,-23.316,-40.04,3.419
39,1436623618893,-23.316,-40.04,3.419
40,1436623618921,-23.316,-40.04,3.419
41,1436623619001,-23.316,-40.04,3.419
42,1436623619002,-23.316,-40.04,3.419
43,1436623619003,-23.316,-40.04,3.419
44,1436623619004,-23.316,-40.04,3.419
45,1436623619013,-23.316,-40.04,3.419
46,1436623619040,-23.316,-40.04,3.419
47,1436623619053,-23.316,-40.04,3.419
48,1436623619073,-23.316,-40.04,3.419
49,1436623619095,-23.619,-40.04,3.419
50,1436623619115,-23.619,-40.04,3.419
51,1436623619135,-23.619,-40.04,3.419
52,1436623619154,-23.619,-40.04,3.419
53,1436623619174,-23.619,-40.04,3.419
54,1436623619195,-23.619,-40.04,3.419
55,1436623619215,-23.619,-40.04,3.419
56,1436623619236,-23.619,-40.04,3.419
57,1436623619256,-23.619,-40.04,3.419
58,1436623619275,-23.619,-40.04,3.419
59,1436623619295,-23.619,-39.726,3.419
60,1436623619316,-23.619,-39.726,3.419
61,1436623619334,-23.619,-39.726,3.419
62,1436623619355,-23.619,-39.726,3.419
63,1436623619376,-23.619,-39.726,3.419
64,1436623619393,-23.619,-39.726,3.419
65,1436623619419,-23.619,-39.726,3.419
66,1436623619434,-23.619,-39.726,3.419
67,1436623619457,-23.619,-39.726,3.419
68,1436623619478,-23.619,-39.726,3.419
69,1436623619497,-23.619,-39.726,3.419
70,1436623619515,-23.619,-39.726,3.419
71,1436623619535,-23.619,-39.726,3.419
72,1436623619555,-23.619,-39.726,3.419
73,1436623619575,-23.619,-39.726,3.419
74,1436623619596,-23.619,-39.726,3.419
75,1436623619616,-23.619,-39.726,3.419
76,1436623619635,-23.619,-39.726,3.419
77,1436623619661,-23.619,-39.726,3.419
78,1436623619725,-23.619,-39.726,3.419
79,1436623619726,-23.619,-39.726,3.419
80,1436623619727,-23.619,-40.048,3.419
81,1436623619734,-23.619,-40.048,3.419
82,1436623619755,-23.619,-40.048,3.419
83,1436623619777,-23.619,-40.048,3.419
84,1436623619793,-23.619,-40.048,3.419
85,1436623619814,-23.619,-40.048,3.419
86,1436623619836,-23.619,-40.048,3.419
87,1436623619855,-23.619,-40.048,3.419
88,1436623619875,-23.619,-40.048,3.419
89,1436623619895,-23.619,-40.048,3.419
90,1436623619915,-23.619,-40.048,3.419
91,1436623619935,-23.619,-40.048,3.419
92,1436623619957,-23.619,-40.048,3.419
93,1436623619981,-23.619,-40.048,3.419
94,1436623619995,-23.619,-40.048,3.419
95,1436623620015,-23.619,-40.048,3.419
96,1436623620035,-23.619,-40.048,3.419
97,1436623620055,-23.619,-40.048,3.419
98,1436623620077,-23.619,-40.048,3.419
99,1436623620097,-23.619,-40.048,3.419
100,1436623620116,-23.619,-40.048,3.419
101,1436623620137,-23.619,-40.048,3.419
102,1436623620155,-23.619,-40.048,3.419
103,1436623620176,-23.619,-40.048,3.419
104,1436623620196,-23.619,-40.048,3.419
105,1436623620214,-23.619,-40.048,3.419
106,1436623620237,-23.619,-40.048,3.419
107,1436623620258,-23.619,-40.048,3.419
108,1436623620278,-23.619,-40.048,3.419
109,1436623620297,-23.619,-40.048,3.419
110,1436623620315,-23.619,-40.048,3.419
111,1436623620335,-23.619,-40.048,3.419
112,1436623620356,-23.619,-40.048,3.419
113,1436623620374,-23.619,-40.048,3.419
114,1436623620398,-23.619,-40.048,3.419
115,1436623620465,-23.619,-40.048,3.419
116,1436623620466,-23.619,-40.048,3.733
117,1436623620467,-23.619,-40.048,3.733
118,1436623620495,-23.619,-40.048,3.733
119,1436623620496,-23.619,-40.048,3.733
120,1436623620530,-23.619,-40.048,3.733
121,1436623620560,-23.619,-40.048,3.733
122,1436623620561,-23.619,-40.048,3.733
123,1436623620646,-23.619,-40.048,3.733
124,1436623620647,-23.619,-40.048,3.733
125,1436623620648,-23.619,-40.048,3.733
126,1436623620649,-23.619,-40.048,3.733
127,1436623620728,-23.619,-40.048,3.733
128,1436623620729,-23.619,-40.048,3.733
129,1436623620730,-23.619,-40.048,3.733
130,1436623620731,-23.619,-40.048,3.733
131,1436623620803,-23.619,-40.048,3.733
132,1436623620804,-23.619,-40.048,3.393
133,1436623620805,-23.619,-40.048,3.393
134,1436623620806,-23.619,-40.048,3.393
135,1436623620815,-23.275,-40.048,3.393
136,1436623620835,-23.275,-40.048,3.076
137,1436623620855,-22.966,-40.364,3.076
138,1436623620875,-21.276,-40.364,3.076
139,1436623620895,-18.457,-40.696,2.769
140,1436623620915,-16.836,-41.61,2.769
141,1436623620944,-15.22,-42.407,2.769
142,1436623620956,-14.462,-42.961,2.241
143,1436623620976,-13.922,-43.664,1.524
144,1436623620996,-13.922,-43.664,0.5
145,1436623621041,-14.895,-43.664,-0.352
146,1436623621042,-16.194,-43.142,-0.352
147,1436623621055,-17.756,-42.507,-0.352
148,1436623621075,-20.385,-42.065,0.199
149,1436623621095,-22.187,-41.456,0.671
150,1436623621115,-23.579,-40.788,1.123
151,1436623621135,-25.219,-40.066,2.024
152,1436623621160,-26.928,-38.804,2.798
153,1436623621176,-28.048,-37.492,2.798
154,1436623621195,-29.687,-36.703,2.143
155,1436623621215,-30.763,-35.09,3.302
156,1436623621235,-31.838,-33.444,4.127
157,1436623621254,-32.704,-32.104,5.967
158,1436623621275,-33.312,-31.724,7.423
159,1436623621317,-33.312,-30.809,9.494
160,1436623621318,-33.312,-30.809,10.977
161,1436623621334,-32.872,-30.142,12.017
162,1436623621359,-32.872,-30.142,12.017
163,1436623621374,-32.127,-30.821,13.034
164,1436623621397,-31.477,-31.535,13.424
165,1436623621417,-30.25,-32.141,14.242
166,1436623621436,-29.138,-33.703,13.288
167,1436623621455,-26.748,-36.451,10.461
168,1436623621476,-23.577,-39.811,1.274
169,1436623621499,-19.377,-41.76,-4.277
170,1436623621516,-18.772,-42.138,-4.277
171,1436623621538,-21.115,-40.692,-3.515
172,1436623621555,-22.984,-40.122,-1.631
173,1436623621576,-24.215,-39.318,-0.16
174,1436623621599,-24.775,-39.318,-1.315
175,1436623621617,-24.299,-39.318,-1.869
176,1436623621639,-24.299,-39.318,-0.816
177,1436623621656,-22.987,-39.973,1.853
178,1436623621676,-22.987,-39.973,3.619
179,1436623621699,-23.849,-39.617,3.619
180,1436623621715,-24.562,-38.92,2.763
181,1436623621736,-25.769,-38.388,4.336
182,1436623621756,-27.044,-37.596,3.846
183,1436623621775,-27.729,-37.126,4.286
184,1436623621795,-27.729,-37.126,5.335
185,1436623621818,-28.105,-37.126,5.873
186,1436623621838,-28.105,-37.126,6.314
187,1436623621856,-28.105,-37.126,7.339
188,1436623621876,-28.105,-36.817,8.18
189,1436623621900,-27.388,-36.817,8.572
190,1436623621916,-27.02,-36.817,9.317
191,1436623621937,-26.376,-37.474,9.843
192,1436623622005,-25.422,-37.942,8.935
193,1436623622006,-24.017,-39.16,4.206
194,1436623622007,-21.002,-40.563,-2.293
195,1436623622025,-19.984,-40.563,-4.336
196,1436623622036,-21.777,-40.563,-3.239
197,1436623622062,-24.038,-39.202,-0.138
198,1436623622079,-25.415,-38.574,2.522
199,1436623622096,-25.894,-38.25,3.89
200,1436623622118,-25.894,-38.25,3.89
201,1436623622138,-25.894,-37.837,3.352
202,1436623622158,-26.802,-37.837,3.028
203,1436623622176,-27.453,-37.283,2.42
204,1436623622198,-28.524,-36.416,1.466
205,1436623622216,-30.047,-35.658,2.819
206,1436623622238,-31.192,-34.02,4.338
207,1436623622256,-31.61,-33.425,6.34
208,1436623622278,-31.61,-32.843,8.334
209,1436623622299,-31.61,-32.843,10.404
210,1436623622320,-30.247,-32.843,12.179
211,1436623622338,-28.773,-34.283,12.867
212,1436623622358,-27.331,-34.82,14.094
213,1436623622385,-25.736,-35.961,15.629
214,1436623622396,-24.562,-36.64,16.474
215,1436623622420,-23.741,-36.64,16.915
216,1436623622439,-23.741,-36.64,15.852
217,1436623622461,-24.127,-37.1,14.913
218,1436623622480,-24.127,-37.1,13.844
219,1436623622500,-23.228,-38.104,12.039
220,1436623622519,-21.775,-39.851,6.964
221,1436623622539,-19.886,-41.401,0.761
222,1436623622559,-18.04,-41.961,-3.276
223,1436623622579,-20.835,-41.246,-4.211
224,1436623622600,-23.423,-39.675,-3.141
225,1436623622621,-25.555,-38.685,-1.202
226,1436623622640,-26.911,-37.76,1.385
227,1436623622658,-26.911,-37.76,3.489
228,1436623622679,-27.278,-37.76,4.19
229,1436623622740,-27.798,-37.31,3.541
230,1436623622751,-28.149,-36.911,3.178
231,1436623622752,-28.5,-36.911,3.178
232,1436623622758,-29.003,-36.911,2.136
233,1436623622777,-29.727,-36.427,1.29
234,1436623622800,-30.101,-35.726,-0.555
235,1436623622817,-30.101,-35.263,-1.525
236,1436623622837,-30.81,-35.263,-2.455
237,1436623622858,-30.81,-35.263,-2.072
238,1436623622878,-29.801,-35.743,-0.518
239,1436623622898,-28.538,-36.407,1.022
240,1436623622919,-27.136,-37.445,1.719
241,1436623622942,-25.495,-38.394,4.188
242,1436623622959,-24.058,-38.885,4.841
243,1436623622979,-22.602,-38.885,6.359
244,1436623622999,-20.385,-39.804,6.958
245,1436623623020,-18.731,-41.056,4.936
246,1436623623040,-16.998,-42.849,1.499
247,1436623623059,-15.592,-43.173,0.19
248,1436623623079,-15.592,-43.173,0.19
249,1436623623099,-16.415,-43.173,0.886
250,1436623623120,-17.214,-43.173,1.615
251,1436623623138,-18.026,-42.776,2.009
252,1436623623159,-19.639,-42.137,0.743
253,1436623623177,-21.066,-41.662,-0.376
254,1436623623197,-22.404,-40.803,1.287
255,1436623623217,-23.913,-39.894,2.969
256,1436623623237,-25.849,-38.734,4.748
257,1436623623262,-27.511,-37.62,5.32
258,1436623623284,-28.198,-37.248,5.682
259,1436623623303,-28.633,-36.599,6.225
260,1436623623320,-28.633,-36.599,6.64
261,1436623623337,-28.158,-36.599,6.64
262,1436623623358,-27.748,-37.191,6.64
263,1436623623380,-27.154,-37.519,6.185
264,1436623623400,-25.897,-38.369,6.185
265,1436623623418,-24.366,-39.555,5.775
266,1436623623485,-23.001,-39.881,5.371
267,1436623623486,-21.963,-40.521,4.64
268,1436623623487,-21.363,-40.521,5.61
269,1436623623497,-20.968,-40.521,6.167
270,1436623623522,-20.968,-40.521,5.552
271,1436623623541,-20.968,-41.038,3.306
272,1436623623557,-19.398,-41.038,1.272
273,1436623623580,-17.921,-41.845,-0.994
274,1436623623597,-19.653,-41.534,-2.502
275,1436623623623,-22.781,-40.217,-0.863
276,1436623623641,-25.186,-39.019,1.519
277,1436623623658,-27.413,-37.664,3.576
278,1436623623677,-29.65,-35.836,1.763
279,1436623623701,-30.763,-34.881,1.763
280,1436623623720,-30.763,-34.881,2.247
281,1436623623753,-31.227,-34.478,2.247
282,1436623623779,-31.9,-33.412,2.803
283,1436623623780,-32.427,-33.023,2.803
284,1436623623797,-32.427,-32.365,3.784
285,1436623623817,-32.038,-32.803,3.784
286,1436623623837,-31.713,-33.372,3.784
287,1436623623858,-30.63,-34.292,4.237
288,1436623623878,-28.802,-35.823,4.237
289,1436623623898,-27.061,-37.081,4.789
290,1436623623918,-25.05,-38.404,5.221
291,1436623623937,-23.245,-39.622,5.221
292,1436623623958,-21.53,-40.498,5.821
293,1436623623978,-20.576,-40.498,6.175
294,1436623623998,-20.576,-41.055,5.371
295,1436623624018,-19.361,-41.502,4.824
296,1436623624038,-18.727,-42.098,4.409
297,1436623624058,-18.203,-42.098,3.309
298,1436623624078,-17.243,-42.788,1.487
299,1436623624098,-16.16,-42.788,-0.036
300,1436623624126,-17.546,-42.788,-0.036
301,1436623624164,-19.439,-41.88,2.415
302,1436623624165,-21.836,-40.753,3.823
303,1436623624195,-24.842,-39.427,2.29
304,1436623624200,-26.934,-38.153,1.913
305,1436623624218,-27.783,-37.443,1.913
306,1436623624240,-28.439,-37.133,2.685
307,1436623624257,-29.376,-36.058,3.06
308,1436623624278,-30.966,-34.922,3.06
309,1436623624297,-31.59,-34.123,3.06
310,1436623624318,-31.59,-33.676,4.223
311,1436623624341,-31.59,-33.676,5.119
312,1436623624362,-30.789,-34.26,5.85
313,1436623624382,-29.669,-34.907,7.046
314,1436623624397,-28.701,-35.99,6.324
315,1436623624419,-27.601,-36.729,6.324
316,1436623624439,-25.788,-38.497,6.324
317,1436623624461,-24.246,-39.363,6.324
318,1436623624482,-22.276,-40.35,5.865
319,1436623624499,-21.52,-40.35,5.865
320,1436623624522,-20.962,-40.35,5.865
321,1436623624538,-20.341,-40.678,6.652
322,1436623624562,-20.341,-40.678,7.189
323,1436623624579,-19.268,-41.268,7.189
324,1436623624599,-18.717,-41.268,6.869
325,1436623624617,-18.273,-42.123,4.328
326,1436623624643,-16.683,-42.985,1.524
327,1436623624661,-16.683,-42.985,-0.341
328,1436623624683,-20.162,-41.355,0.373
329,1436623624701,-23.35,-39.968,2.529
330,1436623624717,-25.914,-38.285,4.789
331,1436623624740,-28.501,-36.82,4.789
332,1436623624758,-30.032,-35.348,2.917
333,1436623624780,-31.044,-34.498,3.666
334,1436623624798,-31.536,-33.659,4.187
335,1436623624867,-32.723,-32.513,4.187
336,1436623624868,-33.735,-31.634,4.187
337,1436623624869,-33.735,-31.33,5.372
338,1436623624878,-33.396,-30.967,7.383
339,1436623624904,-32.446,-31.457,9.519
340,1436623624921,-31.349,-32.588,10.113
341,1436623624941,-29.661,-33.81,11.029
342,1436623624961,-28.076,-35.032,11.761
343,1436623624979,-26.591,-35.966,11.761
344,1436623625005,-25.428,-37.168,11.761
345,1436623625020,-24.583,-38.154,10.443
346,1436623625040,-24.583,-38.67,9.016
347,1436623625058,-24.122,-38.67,8.328
348,1436623625082,-24.122,-39.224,7.865
349,1436623625102,-22.361,-39.224,8.95
350,1436623625122,-21.163,-40.176,8.95
351,1436623625142,-20.04,-40.486,7.878
352,1436623625162,-19.2,-41.77,5.01
353,1436623625182,-17.237,-42.813,0.407
354,1436623625202,-16.638,-42.813,-2.529
355,1436623625221,-18.73,-42.074,-0.924
356,1436623625243,-21.585,-40.684,0.566
357,1436623625260,-24.212,-39.309,2.474
358,1436623625282,-25.915,-37.887,5.397
359,1436623625302,-28.118,-36.518,3.848
360,1436623625322,-29.492,-35.71,3.848
361,1436623625342,-30.131,-35.394,4.565
362,1436623625362,-30.899,-34.538,5.276
363,1436623625382,-30.899,-33.894,5.642
364,1436623625402,-31.472,-33.502,6.738
365,1436623625421,-31.472,-33.502,7.595
366,1436623625443,-30.979,-33.502,8.201
367,1436623625473,-30.549,-33.93,9.092
368,1436623625485,-29.232,-34.304,10.15
369,1436623625502,-28.138,-35.417,11.036
370,1436623625590,-26.249,-36.25,12.959
371,1436623625591,-24.087,-37.063,15.042
372,1436623625592,-22.669,-37.063,17.225
373,1436623625593,-21.884,-37.063,17.642
374,1436623625601,-21.208,-37.063,19.102
375,1436623625632,-20.893,-37.063,19.511
376,1436623625641,-20.565,-37.75,18.032
377,1436623625659,-20.565,-37.75,15.325
378,1436623625682,-20.565,-39.602,9.77
379,1436623625700,-19.856,-40.71,1.737
380,1436623625721,-18.87,-41.377,-3.051
381,1436623625741,-18.87,-41.377,-1.356
382,1436623625762,-19.747,-41.377,1.156
383,1436623625780,-20.928,-40.553,5.41
384,1436623625803,-23.262,-39.756,2.224
385,1436623625823,-22.883,-39.756,1.083
386,1436623625843,-21.74,-40.15,3.555
387,1436623625874,-22.257,-40.15,4.986
388,1436623625896,-23.406,-39.234,6.306
389,1436623625900,-24.182,-38.832,7.012
390,1436623625919,-25.72,-38.363,7.656
391,1436623625940,-26.855,-37.684,7.656
392,1436623625964,-27.526,-37.213,8.14
393,1436623625980,-27.915,-37.213,8.726
394,1436623625999,-27.131,-36.906,9.893
395,1436623626020,-26.147,-37.683,10.798
396,1436623626040,-24.299,-38.035,12.869
397,1436623626059,-22.703,-38.035,15.525
398,1436623626080,-21.311,-38.423,16.998
399,1436623626168,-20.156,-38.423,18.989
400,1436623626169,-20.156,-38.423,18.989
401,1436623626170,-20.156,-38.423,18.989
402,1436623626171,-20.156,-38.423,18.232
403,1436623626180,-21.028,-38.423,15.083
404,1436623626200,-21.028,-39.167,9.506
405,1436623626223,-19.779,-40.216,3.207
406,1436623626256,-19.006,-41.101,-0.027
407,1436623626262,-19.786,-41.101,1.66
408,1436623626279,-21.197,-40.345,3.723
409,1436623626301,-22.373,-40.345,5.484
410,1436623626320,-22.909,-39.526,6.713
411,1436623626341,-23.403,-39.526,4.592
412,1436623626362,-23.403,-39.526,4.188
413,1436623626379,-23.403,-39.526,6.442
414,1436623626401,-23.771,-39.169,7.408
415,1436623626422,-24.264,-39.169,6.289
416,1436623626441,-25.067,-39.169,4.762
417,1436623626462,-25.758,-38.816,4.762
418,1436623626480,-25.758,-38.816,3.642
419,1436623626500,-25.291,-39.146,3.129
420,1436623626521,-24.549,-39.146,3.129
421,1436623626539,-23.495,-39.767,3.129
422,1436623626563,-22.219,-40.182,3.793
423,1436623626583,-20.889,-40.182,4.943
424,1436623626605,-19.725,-40.803,4.943
425,1436623626622,-18.997,-40.803,6.321
426,1436623626643,-18.997,-40.803,6.321
427,1436623626662,-18.0,-41.238,6.64
428,1436623626684,-17.568,-41.238,6.64
429,1436623626703,-17.568,-41.574,6.123
430,1436623626723,-17.568,-42.033,4.185
431,1436623626743,-16.52,-42.472,1.576
432,1436623626765,-16.52,-42.472,-0.434
433,1436623626785,-18.104,-42.161,1.034
434,1436623626802,-20.262,-41.366,3.144
435,1436623626822,-22.758,-40.431,4.869
436,1436623626842,-25.483,-39.288,3.759
437,1436623626869,-27.465,-38.18,2.989
438,1436623626941,-27.793,-38.18,3.495
439,1436623626942,-27.793,-37.484,4.486
440,1436623626943,-27.793,-37.484,4.486
441,1436623626944,-28.909,-36.372,3.692
442,1436623626962,-29.365,-36.038,3.692
443,1436623626993,-29.365,-35.649,3.692
444,1436623627001,-29.777,-35.649,3.283
445,1436623627021,-29.777,-35.649,3.652
446,1436623627041,-29.176,-36.21,3.652
447,1436623627061,-28.732,-36.21,3.652
448,1436623627081,-27.59,-36.898,4.856
449,1436623627101,-26.385,-37.609,5.815
450,1436623627123,-24.615,-38.285,8.728
451,1436623627141,-22.814,-38.285,11.43
452,1436623627164,-21.968,-38.696,12.66
453,1436623627184,-21.363,-38.124,14.027
454,1436623627203,-21.363,-38.124,14.027
455,1436623627224,-21.363,-38.124,12.443
456,1436623627244,-20.802,-39.237,8.651
457,1436623627264,-19.592,-41.004,2.053
458,1436623627284,-18.601,-41.693,0.132
459,1436623627301,-17.907,-41.693,2.053
460,1436623627325,-18.347,-42.031,4.754
461,1436623627341,-19.281,-41.346,5.989
462,1436623627364,-22.006,-40.692,2.198
463,1436623627381,-22.421,-40.692,2.801
464,1436623627403,-22.015,-40.692,3.536
465,1436623627425,-22.015,-40.692,3.536
466,1436623627443,-21.684,-40.692,3.536
467,1436623627462,-22.167,-40.692,2.017
468,1436623627486,-22.502,-40.692,2.017
469,1436623627501,-22.502,-40.692,0.778
470,1436623627523,-22.502,-40.692,0.032
471,1436623627569,-22.502,-40.692,0.032
472,1436623627570,-22.502,-40.692,0.7
473,1436623627685,-21.917,-41.026,0.7
474,1436623627686,-21.356,-41.026,2.246
475,1436623627687,-20.365,-41.026,3.871
476,1436623627688,-19.993,-41.026,5.105
477,1436623627689,-19.993,-41.026,6.527
478,1436623627690,-19.628,-41.026,7.797
479,1436623627713,-19.628,-41.026,8.912
480,1436623627735,-19.628,-41.026,8.912
481,1436623627741,-20.011,-41.026,7.926
482,1436623627779,-20.352,-41.026,4.502
483,1436623627782,-20.352,-41.026,0.172
484,1436623627803,-20.352,-41.026,-2.778
485,1436623627823,-21.081,-41.026,-1.658
486,1436623627841,-21.081,-41.026,1.747
487,1436623627864,-21.081,-41.026,4.983
488,1436623627881,-22.935,-41.026,3.407
489,1436623627902,-24.746,-41.026,0.317
490,1436623627922,-25.691,-40.565,1.591
491,1436623627943,-26.132,-39.744,2.175
492,1436623627965,-27.058,-39.088,2.613
493,1436623627985,-27.725,-37.867,4.521
494,1436623628005,-29.194,-36.405,6.307
495,1436623628024,-29.194,-34.968,8.872
496,1436623628047,-29.194,-34.968,10.121
497,1436623628064,-28.506,-34.968,11.354
498,1436623628083,-27.429,-34.968,12.474
499,1436623628102,-26.087,-36.006,13.581
500,1436623628123,-24.577,-36.778,15.676
501,1436623628144,-23.442,-36.778,16.371
502,1436623628165,-22.669,-36.778,17.877
503,1436623628185,-21.751,-36.778,18.946
504,1436623628208,-20.835,-37.33,18.946
505,1436623628222,-20.352,-37.33,18.946
