id,attr_time,attr_x,attr_y,attr_z
1,1438331472025,-12.492,-36.965,20.19
2,1438331472044,-12.492,-36.965,20.19
3,1438331472069,-12.492,-36.965,20.19
4,1438331472085,-12.492,-36.965,20.19
5,1438331472105,-12.492,-36.965,20.19
6,1438331472125,-12.492,-36.965,20.19
7,1438331472144,-12.492,-36.965,20.19
8,1438331472167,-12.492,-36.965,20.19
9,1438331472188,-12.492,-36.965,20.19
10,1438331472208,-12.492,-36.965,20.19
11,1438331472227,-12.492,-36.965,20.19
12,1438331472247,-12.492,-36.965,20.19
13,1438331472267,-12.492,-36.965,20.19
14,1438331472288,-12.492,-36.965,20.19
15,1438331472308,-12.492,-36.965,20.19
16,1438331472327,-12.492,-36.965,20.19
17,1438331472347,-12.492,-36.965,20.19
18,1438331472369,-12.492,-36.965,20.19
19,1438331472384,-12.492,-36.965,20.19
20,1438331472405,-12.492,-36.965,20.19
21,1438331472427,-12.492,-36.965,20.19
22,1438331472447,-12.492,-36.965,20.19
23,1438331472468,-12.492,-36.965,20.19
24,1438331472488,-12.492,-36.965,20.19
25,1438331472507,-12.492,-36.965,20.19
26,1438331472527,-12.492,-36.965,20.19
27,1438331472566,-12.492,-36.965,20.19
28,1438331472567,-12.492,-36.965,20.19
29,1438331472593,-12.492,-36.965,20.19
30,1438331472607,-12.492,-36.965,20.19
31,1438331472625,-12.492,-36.965,20.19
32,1438331472645,-12.492,-36.965,20.19
33,1438331472665,-12.492,-36.965,20.19
34,1438331472686,-12.492,-36.965,20.19
35,1438331472707,-12.492,-36.965,20.19
36,1438331472727,-12.492,-36.965,20.19
37,1438331472751,-12.492,-36.965,20.19
38,1438331472764,-12.492,-36.965,20.19
39,1438331472784,-12.492,-36.965,20.19
40,1438331472815,-12.492,-36.965,20.19
41,1438331472836,-12.492,-36.965,20.19
42,1438331472845,-12.492,-36.965,20.19
43,1438331472867,-12.492,-36.965,20.19
44,1438331472885,-12.492,-36.965,20.19
45,1438331472905,-12.492,-36.965,20.19
46,1438331472925,-12.492,-36.965,20.19
47,1438331472945,-12.492,-36.965,20.19
48,1438331472965,-12.492,-36.965,20.19
49,1438331472985,-12.492,-36.965,20.19
50,1438331473005,-12.492,-36.965,20.19
51,1438331473026,-12.492,-36.965,20.19
52,1438331473047,-12.492,-36.965,20.19
53,1438331473075,-12.492,-36.965,20.19
54,1438331473086,-12.492,-36.965,20.19
55,1438331473105,-12.492,-36.965,20.19
56,1438331473129,-12.492,-36.965,20.19
57,1438331473149,-12.492,-36.965,20.19
58,1438331473170,-12.492,-36.965,20.19
59,1438331473188,-12.492,-36.965,20.19
60,1438331473207,-12.492,-36.965,20.19
61,1438331473225,-12.492,-36.965,20.19
62,1438331473245,-12.492,-36.965,20.19
63,1438331473287,-12.492,-36.965,20.19
64,1438331473288,-12.492,-36.657,20.19
65,1438331473307,-12.492,-36.657,20.19
66,1438331473327,-12.492,-36.657,20.19
67,1438331473347,-12.492,-36.657,20.19
68,1438331473365,-12.492,-36.657,20.19
69,1438331473384,-12.492,-36.657,20.19
70,1438331473404,-12.492,-36.657,20.19
71,1438331473424,-12.492,-36.657,20.19
72,1438331473444,-12.492,-36.657,20.19
73,1438331473469,-12.492,-36.657,20.19
74,1438331473484,-12.492,-36.657,20.19
75,1438331473505,-12.492,-36.657,20.19
76,1438331473529,-12.492,-36.657,20.19
77,1438331473549,-12.492,-36.657,20.19
78,1438331473569,-12.492,-36.657,20.19
79,1438331473588,-12.492,-36.657,20.19
80,1438331473606,-12.492,-36.657,20.19
81,1438331473629,-12.492,-36.657,20.19
82,1438331473648,-12.492,-36.657,20.19
83,1438331473668,-12.492,-36.657,20.19
84,1438331473687,-12.492,-36.657,20.19
85,1438331473708,-12.492,-36.657,20.19
86,1438331473727,-12.492,-36.657,20.19
87,1438331473747,-12.492,-36.657,20.19
88,1438331473769,-12.492,-36.657,20.19
89,1438331473786,-12.492,-36.657,20.19
90,1438331473806,-12.492,-36.657,20.19
91,1438331473829,-12.492,-36.657,20.19
92,1438331473849,-12.492,-36.657,20.19
93,1438331473869,-12.492,-36.657,20.495
94,1438331473889,-12.492,-36.657,20.495
95,1438331473908,-12.492,-36.657,20.495
96,1438331473928,-12.492,-36.657,20.495
97,1438331473946,-12.492,-36.657,20.495
98,1438331473967,-12.492,-36.657,20.495
99,1438331473987,-12.492,-36.657,20.495
100,1438331474013,-12.492,-36.657,20.495
101,1438331474109,-12.492,-36.657,20.495
102,1438331474110,-12.492,-36.657,20.495
103,1438331474111,-12.492,-36.657,20.495
104,1438331474112,-12.492,-36.657,20.495
105,1438331474113,-12.492,-36.657,20.495
106,1438331474127,-12.492,-36.657,20.495
107,1438331474151,-12.492,-36.657,20.495
108,1438331474166,-12.492,-36.657,20.495
109,1438331474186,-12.492,-36.657,20.495
110,1438331474208,-12.492,-36.657,20.495
111,1438331474228,-12.492,-36.657,20.495
112,1438331474247,-12.492,-36.657,20.495
113,1438331474267,-12.492,-36.657,20.495
114,1438331474287,-12.492,-36.657,20.188
115,1438331474308,-12.492,-36.657,20.188
116,1438331474329,-12.492,-36.657,20.188
117,1438331474349,-12.492,-36.657,20.188
118,1438331474367,-12.492,-36.657,20.188
119,1438331474386,-12.492,-36.657,20.188
120,1438331474406,-12.492,-36.657,20.188
121,1438331474426,-12.492,-36.657,20.188
122,1438331474446,-12.492,-36.657,20.188
123,1438331474467,-12.492,-36.657,20.188
124,1438331474488,-12.492,-36.657,20.188
125,1438331474510,-12.492,-36.657,20.188
126,1438331474527,-12.492,-36.657,20.188
127,1438331474548,-12.492,-36.657,20.188
128,1438331474569,-12.492,-36.657,20.188
129,1438331474588,-12.492,-36.657,20.188
130,1438331474609,-12.492,-36.657,20.188
131,1438331474629,-12.492,-36.657,20.188
132,1438331474649,-12.492,-36.657,20.188
133,1438331474667,-12.492,-36.657,20.188
134,1438331474687,-12.492,-36.657,20.188
135,1438331474708,-12.492,-36.657,20.188
136,1438331474726,-12.492,-36.657,20.188
137,1438331474747,-12.492,-36.657,20.188
138,1438331474768,-12.492,-36.657,20.188
139,1438331474816,-12.492,-36.657,20.188
140,1438331474817,-12.492,-36.657,20.188
141,1438331474836,-12.492,-36.657,20.491
142,1438331474846,-12.492,-36.657,20.491
143,1438331474869,-12.492,-36.657,20.491
144,1438331474887,-12.492,-36.657,20.491
145,1438331474908,-12.492,-36.657,20.491
146,1438331474928,-12.492,-36.657,20.491
147,1438331474947,-12.492,-36.657,20.491
148,1438331474968,-12.492,-36.657,20.491
149,1438331474988,-12.492,-36.657,20.491
150,1438331475010,-12.492,-36.657,20.491
151,1438331475034,-12.492,-36.657,20.491
152,1438331475049,-12.492,-36.657,20.491
153,1438331475067,-12.492,-36.657,20.491
154,1438331475087,-12.492,-36.657,20.491
155,1438331475108,-12.492,-36.657,20.491
156,1438331475130,-12.492,-36.657,20.491
157,1438331475150,-12.492,-36.657,20.491
158,1438331475170,-12.492,-36.657,20.491
159,1438331475190,-12.492,-36.657,20.491
160,1438331475208,-12.492,-36.657,20.491
161,1438331475229,-12.492,-36.657,20.491
162,1438331475250,-12.492,-36.657,20.491
163,1438331475270,-12.492,-36.657,20.491
164,1438331475290,-12.492,-36.657,20.491
165,1438331475308,-12.492,-36.657,20.491
166,1438331475330,-12.492,-36.657,20.491
167,1438331475349,-12.492,-36.657,20.491
168,1438331475369,-12.492,-36.657,20.491
169,1438331475388,-12.492,-36.657,20.491
170,1438331475410,-12.492,-36.657,20.491
171,1438331475430,-12.492,-36.657,20.491
172,1438331475447,-12.492,-36.657,20.491
173,1438331475469,-12.492,-36.657,20.491
174,1438331475498,-12.492,-36.657,20.491
175,1438331475558,-12.492,-36.657,20.491
176,1438331475559,-12.492,-36.657,20.491
177,1438331475561,-12.492,-36.657,20.491
178,1438331475579,-12.492,-36.657,20.185
179,1438331475587,-12.492,-36.657,20.185
180,1438331475608,-12.492,-36.657,20.185
181,1438331475629,-12.492,-36.657,20.185
182,1438331475647,-12.492,-36.657,20.185
183,1438331475667,-12.492,-36.657,20.185
184,1438331475688,-12.492,-36.657,20.185
185,1438331475709,-12.492,-36.657,20.185
186,1438331475729,-12.492,-36.657,20.185
187,1438331475748,-12.492,-36.657,20.185
188,1438331475767,-12.797,-36.657,20.185
189,1438331475789,-12.797,-36.657,20.185
190,1438331475811,-12.797,-36.657,20.185
191,1438331475831,-12.797,-36.657,20.185
192,1438331475851,-12.797,-36.657,20.185
193,1438331475871,-12.797,-36.657,20.185
194,1438331475888,-12.797,-36.657,20.185
195,1438331475909,-12.797,-36.657,20.185
196,1438331475931,-12.797,-36.657,20.503
197,1438331475951,-12.797,-36.657,20.503
198,1438331475968,-12.797,-36.657,20.503
199,1438331475992,-12.797,-36.657,20.503
200,1438331476011,-12.797,-36.657,20.503
201,1438331476035,-12.797,-36.657,20.503
202,1438331476065,-12.797,-36.657,20.503
203,1438331476073,-12.797,-36.657,20.503
204,1438331476089,-12.797,-36.657,20.503
205,1438331476110,-12.797,-36.657,20.503
206,1438331476129,-12.797,-36.657,20.503
207,1438331476150,-12.797,-36.657,20.503
208,1438331476172,-12.797,-36.657,20.503
209,1438331476192,-12.797,-36.657,20.503
210,1438331476212,-12.797,-36.657,20.503
211,1438331476230,-12.797,-36.657,20.503
212,1438331476252,-12.797,-36.657,20.503
213,1438331476322,-12.797,-36.657,20.503
214,1438331476323,-12.797,-36.657,20.503
215,1438331476324,-12.797,-36.657,20.503
216,1438331476330,-12.797,-36.657,20.503
217,1438331476357,-12.797,-36.657,20.503
218,1438331476369,-12.797,-36.657,20.166
219,1438331476388,-12.797,-36.657,20.166
220,1438331476412,-12.797,-36.657,20.166
221,1438331476428,-12.797,-36.657,20.166
222,1438331476451,-12.797,-36.657,20.166
223,1438331476469,-12.797,-36.657,20.166
224,1438331476490,-12.797,-36.657,20.166
225,1438331476509,-12.797,-36.657,20.166
226,1438331476532,-12.797,-36.657,20.166
227,1438331476550,-12.797,-36.657,20.166
228,1438331476571,-12.797,-36.657,20.166
229,1438331476589,-12.797,-36.657,20.166
230,1438331476610,-12.797,-36.657,20.166
231,1438331476632,-12.797,-36.657,20.166
232,1438331476650,-12.797,-36.657,20.166
233,1438331476668,-12.797,-36.657,20.166
234,1438331476689,-12.797,-36.657,20.166
235,1438331476712,-12.797,-36.657,20.166
236,1438331476732,-12.797,-36.657,20.166
237,1438331476752,-12.797,-36.657,20.166
238,1438331476773,-12.797,-36.657,20.166
239,1438331476791,-12.797,-36.657,20.166
240,1438331476811,-12.797,-36.657,20.166
241,1438331476831,-12.797,-36.657,20.166
242,1438331476849,-12.797,-36.657,20.166
243,1438331476869,-12.797,-36.657,20.166
244,1438331476893,-12.797,-36.657,20.166
245,1438331476913,-12.797,-36.657,20.166
246,1438331476933,-12.797,-36.657,20.166
247,1438331476951,-12.797,-36.657,20.166
248,1438331476972,-12.797,-36.657,20.166
249,1438331477080,-12.797,-36.657,20.166
250,1438331477081,-12.797,-36.657,20.166
251,1438331477082,-12.797,-36.657,20.166
252,1438331477083,-12.797,-36.657,20.166
253,1438331477084,-12.797,-36.657,20.166
254,1438331477113,-12.797,-36.657,20.166
255,1438331477114,-12.797,-36.657,20.166
256,1438331477129,-12.797,-36.657,20.166
257,1438331477149,-12.797,-36.657,20.166
258,1438331477172,-12.797,-36.657,20.166
259,1438331477190,-12.797,-36.657,20.166
260,1438331477211,-12.493,-36.657,20.166
261,1438331477229,-12.493,-36.657,20.166
262,1438331477251,-12.493,-36.657,20.166
263,1438331477272,-12.493,-36.657,20.166
264,1438331477292,-12.493,-36.657,20.166
265,1438331477313,-12.493,-36.657,20.166
266,1438331477331,-12.493,-36.657,20.166
267,1438331477352,-12.493,-36.657,20.166
268,1438331477373,-12.493,-36.657,20.166
269,1438331477391,-12.493,-36.657,20.166
270,1438331477412,-12.493,-36.657,20.166
271,1438331477433,-12.493,-36.657,20.166
272,1438331477452,-12.167,-36.657,20.166
273,1438331477469,-12.167,-36.657,20.166
274,1438331477490,-12.167,-36.657,20.166
275,1438331477510,-12.167,-36.657,20.166
276,1438331477529,-12.167,-36.657,20.166
277,1438331477550,-12.167,-36.657,20.166
278,1438331477572,-12.167,-36.657,20.166
279,1438331477591,-11.825,-36.657,20.166
280,1438331477613,-11.825,-36.657,20.166
281,1438331477632,-11.825,-36.657,20.166
282,1438331477651,-11.825,-36.657,20.166
283,1438331477671,-11.825,-36.962,20.166
284,1438331477691,-11.492,-36.962,20.166
285,1438331477724,-11.492,-36.962,20.166
286,1438331477777,-11.492,-36.962,20.166
287,1438331477778,-11.492,-36.962,20.166
288,1438331477779,-11.492,-36.962,20.166
289,1438331477797,-11.492,-36.962,20.48
290,1438331477810,-11.492,-36.962,20.48
291,1438331477831,-11.492,-36.962,20.48
292,1438331477852,-11.492,-36.962,20.48
293,1438331477871,-11.492,-36.962,20.48
294,1438331477905,-11.492,-36.962,20.48
295,1438331477910,-11.492,-36.962,20.48
296,1438331477930,-11.492,-36.962,20.48
297,1438331477949,-11.492,-36.962,20.48
298,1438331478002,-11.492,-36.962,20.48
299,1438331478003,-11.492,-36.962,20.48
300,1438331478011,-11.492,-36.962,20.48
301,1438331478030,-11.857,-36.962,20.48
302,1438331478050,-11.857,-36.962,20.48
303,1438331478070,-11.857,-36.962,20.48
304,1438331478091,-12.231,-36.962,20.48
305,1438331478110,-12.231,-36.962,20.106
306,1438331478130,-12.53,-36.962,20.106
307,1438331478152,-12.53,-36.962,20.106
308,1438331478172,-12.84,-36.962,19.802
309,1438331478194,-12.84,-36.962,19.802
310,1438331478212,-13.233,-36.65,19.802
311,1438331478232,-13.74,-36.65,19.802
312,1438331478252,-14.239,-36.65,19.802
313,1438331478272,-14.729,-36.65,19.802
314,1438331478293,-15.187,-36.65,19.802
315,1438331478313,-15.647,-36.65,19.802
316,1438331478334,-15.647,-36.65,19.802
317,1438331478353,-16.343,-36.65,19.802
318,1438331478372,-16.343,-36.32,19.802
319,1438331478391,-16.827,-36.32,19.802
320,1438331478412,-16.827,-36.32,19.802
321,1438331478433,-17.181,-36.32,19.802
322,1438331478450,-17.181,-36.32,19.419
323,1438331478500,-17.181,-35.998,19.419
324,1438331478502,-17.529,-35.998,19.419
325,1438331478517,-17.529,-35.998,19.419
326,1438331478530,-17.529,-35.998,19.076
327,1438331478550,-17.529,-35.998,19.076
328,1438331478570,-17.529,-35.998,18.411
329,1438331478590,-17.874,-35.998,17.703
330,1438331478613,-17.874,-35.998,17.228
331,1438331478632,-17.874,-35.998,16.629
332,1438331478650,-18.232,-35.998,16.629
333,1438331478673,-18.232,-35.998,15.985
334,1438331478691,-18.232,-35.998,15.083
335,1438331478711,-18.232,-36.334,14.7
336,1438331478736,-18.232,-36.334,14.077
337,1438331478751,-17.086,-36.637,13.656
338,1438331478770,-15.338,-37.419,12.956
339,1438331478792,-13.597,-38.366,12.281
340,1438331478810,-12.217,-38.874,12.281
341,1438331478834,-10.783,-39.326,12.281
342,1438331478853,-9.255,-40.159,11.415
343,1438331478873,-7.908,-40.159,11.415
344,1438331478895,-6.518,-40.667,11.415
345,1438331478912,-5.335,-40.667,11.006
346,1438331478934,-4.185,-41.105,11.006
347,1438331478953,-2.755,-41.105,11.006
348,1438331478973,-1.214,-41.105,11.006
349,1438331478993,0.822,-41.105,11.741
350,1438331479013,2.864,-40.719,11.741
351,1438331479033,4.377,-40.719,11.741
352,1438331479054,5.543,-40.719,11.741
353,1438331479074,6.77,-40.719,11.741
354,1438331479093,7.221,-40.719,11.741
355,1438331479112,7.85,-40.719,11.741
356,1438331479133,8.59,-41.041,11.741
357,1438331479154,8.59,-41.041,12.739
358,1438331479174,9.449,-41.041,13.877
359,1438331479243,9.779,-41.041,14.927
360,1438331479244,10.218,-41.041,15.887
361,1438331479245,10.742,-41.041,17.042
362,1438331479253,10.742,-39.967,18.009
363,1438331479277,11.668,-39.201,18.521
364,1438331479293,12.019,-38.134,20.048
365,1438331479313,12.983,-37.249,20.048
366,1438331479334,13.459,-36.544,20.771
367,1438331479353,14.189,-35.964,21.076
368,1438331479373,14.913,-35.171,21.458
369,1438331479391,15.835,-34.271,21.458
370,1438331479414,16.545,-33.28,21.83
371,1438331479437,18.029,-32.464,22.328
372,1438331479454,19.078,-31.91,21.928
373,1438331479474,20.552,-30.834,21.928
374,1438331479494,21.821,-30.299,21.426
375,1438331479514,23.078,-29.876,20.858
376,1438331479534,24.726,-29.083,20.117
377,1438331479554,26.354,-28.662,19.314
378,1438331479574,28.533,-28.291,17.329
379,1438331479594,29.776,-27.717,15.487
380,1438331479615,30.497,-27.717,13.71
381,1438331479633,31.684,-27.717,11.318
382,1438331479654,32.304,-27.371,9.997
383,1438331479673,33.177,-27.371,8.352
384,1438331479693,33.581,-27.371,7.189
385,1438331479712,33.984,-27.371,5.769
386,1438331479736,33.984,-27.371,4.692
387,1438331479756,34.455,-27.371,3.494
388,1438331479777,34.455,-27.371,2.836
389,1438331479795,34.455,-27.371,2.293
390,1438331479814,35.111,-27.371,1.429
391,1438331479832,35.111,-27.371,0.817
392,1438331479855,35.111,-27.371,0.817
393,1438331479874,35.111,-27.371,0.393
394,1438331479892,35.111,-27.069,0.393
395,1438331479945,35.111,-27.069,-0.215
396,1438331479946,35.111,-27.069,0.088
397,1438331479960,35.111,-26.765,0.088
398,1438331479972,35.111,-26.765,-0.36
399,1438331480005,34.696,-26.765,0.227
400,1438331480013,34.696,-26.765,0.601
401,1438331480062,34.696,-26.765,1.06
402,1438331480063,35.122,-26.765,1.438
403,1438331480097,35.122,-26.419,1.438
404,1438331480098,35.122,-26.419,2.102
405,1438331480113,35.122,-26.419,1.611
406,1438331480135,35.494,-26.419,1.237
407,1438331480151,35.494,-26.419,1.237
408,1438331480175,35.494,-26.095,1.237
409,1438331480195,35.494,-26.095,1.237
410,1438331480215,35.494,-26.095,1.237
411,1438331480235,35.832,-26.095,1.237
412,1438331480255,35.832,-25.749,1.237
413,1438331480275,35.832,-25.749,1.655
414,1438331480295,35.832,-25.749,1.96
415,1438331480315,35.832,-25.416,1.96
416,1438331480335,36.134,-25.416,1.96
417,1438331480356,36.134,-25.416,1.96
418,1438331480372,36.134,-25.115,2.366
419,1438331480395,36.134,-25.115,2.366
420,1438331480415,36.134,-25.115,2.799
421,1438331480435,36.134,-24.813,2.799
422,1438331480455,36.134,-24.813,3.28
423,1438331480473,36.134,-24.813,4.985
424,1438331480495,36.45,-24.485,6.613
425,1438331480515,36.45,-24.485,8.096
426,1438331480535,36.45,-24.485,8.515
427,1438331480555,36.45,-24.131,9.04
428,1438331480576,36.45,-24.131,9.582
429,1438331480596,36.45,-24.131,10.076
430,1438331480613,36.45,-23.805,10.076
431,1438331480634,36.45,-23.805,10.076
432,1438331480689,36.45,-23.805,8.937
433,1438331480690,36.45,-23.333,7.707
434,1438331480703,36.45,-21.911,6.684
435,1438331480712,36.45,-19.992,6.684
436,1438331480737,36.45,-18.28,6.303
437,1438331480754,37.379,-17.306,7.292
438,1438331480774,38.24,-16.459,7.292
439,1438331480794,38.24,-15.808,7.899
440,1438331480814,38.616,-15.808,7.899
441,1438331480834,38.616,-15.808,8.508
442,1438331480852,38.616,-15.808,8.508
443,1438331480875,39.012,-15.275,8.891
444,1438331480894,39.314,-14.596,8.891
445,1438331480916,39.314,-14.097,8.891
446,1438331480936,39.314,-13.681,8.891
447,1438331480956,39.816,-13.681,8.891
448,1438331480977,39.816,-13.681,8.891
449,1438331480995,39.816,-14.045,8.557
450,1438331481013,39.512,-14.488,8.557
451,1438331481035,39.512,-15.568,8.557
452,1438331481053,39.512,-16.598,9.539
453,1438331481078,39.512,-17.036,11.946
454,1438331481095,39.057,-17.036,13.905
455,1438331481116,37.503,-17.036,15.22
456,1438331481135,36.985,-17.431,15.22
457,1438331481156,36.65,-17.431,15.22
458,1438331481174,36.65,-17.884,15.22
459,1438331481195,36.114,-18.203,15.795
460,1438331481215,34.954,-18.637,18.087
461,1438331481236,33.395,-19.076,19.95
462,1438331481255,32.196,-19.567,21.229
463,1438331481276,32.196,-19.567,21.229
464,1438331481295,32.196,-19.201,20.916
465,1438331481315,32.608,-19.537,20.916
466,1438331481334,32.984,-19.537,19.5
467,1438331481357,33.363,-19.537,18.44
468,1438331481401,34.083,-19.537,17.098
469,1438331481414,34.727,-19.537,15.895
470,1438331481415,34.727,-19.215,15.174
471,1438331481436,34.727,-19.215,14.86
472,1438331481457,35.241,-19.551,13.703
473,1438331481475,35.241,-19.551,13.081
474,1438331481493,35.574,-19.551,13.081
475,1438331481517,35.574,-19.551,14.216
476,1438331481534,34.786,-19.551,15.386
477,1438331481555,34.333,-19.873,16.394
478,1438331481573,33.647,-19.873,18.313
479,1438331481595,32.968,-19.873,19.104
480,1438331481613,32.209,-19.873,21.247
481,1438331481636,31.542,-20.188,22.245
482,1438331481656,30.85,-20.188,23.078
483,1438331481676,30.513,-20.188,23.078
484,1438331481697,30.513,-20.188,23.078
485,1438331481716,30.879,-20.188,22.724
486,1438331481736,31.181,-20.552,21.041
487,1438331481756,32.084,-20.552,20.51
488,1438331481776,32.6,-20.552,18.991
489,1438331481798,33.117,-20.552,18.119
490,1438331481816,33.854,-20.552,16.583
491,1438331481836,34.724,-20.88,14.651
492,1438331481856,35.185,-20.88,12.078
493,1438331481876,35.742,-20.88,9.373
494,1438331481895,36.454,-21.273,7.135
495,1438331481917,36.813,-21.273,6.582
496,1438331481937,37.257,-21.273,6.582
497,1438331481957,37.637,-21.273,7.289
498,1438331481979,37.637,-21.273,8.233
499,1438331481995,38.04,-21.273,9.495
500,1438331482016,38.04,-19.5,9.495
