id,attr_time,attr_db
1,1436796648052,38.1669941775072
2,1436796648779,13.474796778561
3,1436796649502,44.7733808616141
4,1436796650215,60.8750673921647
5,1436796650912,54.1591647532074
6,1436796651592,50.4277652849466
7,1436796652276,20.0583942004319
8,1436796652961,40.8395357525689
9,1436796653707,41.3018841221382
10,1436796654450,70.8767820838427
11,1436796655168,59.7350287187145
12,1436796655874,42.7156687656918
13,1436796656611,46.4053611087156
14,1436796657289,25.6601501320729
15,1436796658013,12.0400307236957
16,1436796658768,32.565779520905
17,1436796659482,9.3725420430332
18,1436796661335,32.3800620027863
19,1436796662070,42.5023885636702
20,1436796662840,39.5870792751456
21,1436796663628,45.1225562833882
22,1436796664317,53.6389521955342
23,1436796664974,61.3772210127883
24,1436796665713,38.4703782353488
25,1436796666456,64.6573045761796
26,1436796667106,45.3035179771018
27,1436796667814,35.6654719401463
28,1436796669512,41.9902132342607
29,1436796670205,53.1777725863238
30,1436796670932,66.0653277370459
31,1436796671670,61.4224890875489
32,1436796672403,45.7474526113829
33,1436796673098,34.6028299102622
34,1436796673686,47.4531603224905
35,1436796674329,42.2872926814265
36,1436796675070,40.6679727428547
37,1436796675789,46.8178458775851
38,1436796676510,45.6029407058114
39,1436796677233,62.7116758560281
40,1436796677977,65.3008081955112
41,1436796678741,40.1534479334194
42,1436796679449,44.5964198474053
43,1436796680172,57.3123008780384
44,1436796680936,55.7435828490999
45,1436796681641,28.8591109680265
46,1436796682369,43.0763481990726
47,1436796683090,55.2249134715689
48,1436796683821,48.6839299708896
49,1436796684533,49.3213190109736
50,1436796685234,44.6041480250017
51,1436796685936,43.5603495923287
52,1436796686639,61.6126036104829
53,1436796687334,40.405920514041
54,1436796688108,53.1895779131539
55,1436796688852,52.9422752048018
56,1436796689602,59.8850871532397
57,1436796690319,58.8692661564013
58,1436796691035,46.1593621039297
59,1436796691771,43.4319144012702
60,1436796692497,38.2036629505231
61,1436796693211,47.5844713391261
62,1436796693933,49.2259761465269
63,1436796694652,54.8242086839886
64,1436796695309,70.994983889172
65,1436796696045,50.1305056157535
66,1436796696785,52.2573320497941
67,1436796697486,35.9051590336456
68,1436796698159,43.6252352797363
69,1436796698856,60.3639154276663
70,1436796699557,55.7738960662434
71,1436796700245,59.6682849983806
72,1436796700956,60.6052378635432
73,1436796701685,41.6573826994937
74,1436796702400,43.257866665962
75,1436796703199,39.4870373993225
76,1436796703924,50.5890198836044
77,1436796704666,49.0140538046615
78,1436796705380,49.8340930238579
79,1436796706066,47.4550071696422
80,1436796706816,48.3250683872759
81,1436796707535,33.3554266286975
82,1436796708301,38.4042976144497
83,1436796709076,36.0094920834741
84,1436796709814,46.0582636475082
85,1436796710532,41.9852252222402
86,1436796711264,41.3158674986987
87,1436796711996,37.4907751737612
88,1436796712717,45.5378329649799
89,1436796713478,47.4044961634751
90,1436796714237,57.2284075962754
91,1436796714929,46.3348668216459
92,1436796715638,44.6092129704841
93,1436796716338,40.9016459577934
94,1436796716997,46.4095122729381
95,1436796717775,47.5609812672235
96,1436796718490,47.9848081146125
97,1436796719201,35.1800807470358
98,1436796719943,44.8226726418112
99,1436796720689,38.7060158613965
100,1436796721391,49.2555287250769
101,1436796722054,48.7935391924337
102,1436796722749,48.0524079605192
103,1436796723468,57.5406454035251
104,1436796724188,65.8580425668742
105,1436796724900,45.0076825732075
106,1436796725621,49.1309546631987
107,1436796726338,50.8671383860991
108,1436796727045,57.8894013421353
109,1436796727750,33.975787235473
110,1436796728485,44.8080406966066
111,1436796729195,55.6796944892833
112,1436796729934,41.0284682759372
113,1436796730690,45.0611700869245
114,1436796731402,54.9324017104449
115,1436796732135,47.8053671130465
116,1436796732854,36.3641335307571
117,1436796733576,49.0646736193683
118,1436796734256,44.0709358427494
119,1436796734943,38.3135780465359
120,1436796735712,23.5727614448027
121,1436796736425,35.3039048370847
122,1436796737146,34.4431014582928
123,1436796737867,33.3182373668564
124,1436796738584,55.2180729599915
125,1436796739312,39.7653361201172
126,1436796740056,45.8329548997555
127,1436796740802,34.9953477313209
128,1436796741547,45.089688406627
129,1436796742282,50.2176861717495
130,1436796743006,47.5921338639854
131,1436796743812,48.3044254100591
132,1436796744560,69.8336815006752
133,1436796745269,36.0010738166148
134,1436796745993,61.6755700335649
135,1436796746640,50.7387460094444
136,1436796747328,52.3119684455945
137,1436796748059,49.5041153857394
138,1436796748806,36.4951628287469
139,1436796749569,55.1875069220782
140,1436796750328,43.0058657664141
141,1436796751063,54.3371725901973
142,1436796751865,43.7717677184584
143,1436796752571,39.5468724984245
144,1436796753296,36.6628410191004
145,1436796754057,50.5296244368024
146,1436796754746,34.0331376555327
147,1436796755491,35.3169377633595
148,1436796756209,40.0042236189309
149,1436796756951,49.8227144279299
150,1436796757629,53.2433334257571
151,1436796758357,53.8491706523247
152,1436796759109,43.498191166245
153,1436796759839,47.3699100005656
154,1436796760560,60.2203039930411
155,1436796761299,43.5588292101522
156,1436796762042,51.7734771389314
157,1436796762782,50.6556516980455
158,1436796763501,50.3073909320837
159,1436796764316,42.7692740522268
160,1436796765053,47.8931292874591
161,1436796765801,56.4440018481723
162,1436796766516,59.5994513475792
163,1436796767216,41.4894022612259
164,1436796767994,60.6994460258377
165,1436796768758,41.1161353629518
166,1436796769455,35.4321604429687
167,1436796770178,44.2047391530558
168,1436796770914,52.1721872173399
169,1436796771661,58.511279864111
170,1436796772373,60.605766651043
171,1436796773103,35.1681856515769
172,1436796773830,46.2307170856294
173,1436796774510,57.312800322162
174,1436796775188,56.7882742607627
175,1436796775911,57.720826287493
176,1436796776667,48.5855529425026
177,1436796777387,42.3589593444579
178,1436796778123,44.4352190657113
179,1436796778853,65.8604193562604
180,1436796779546,67.3445410986481
181,1436796780270,59.85559859186
182,1436796780988,56.0459962423553
183,1436796781743,34.3501705545918
184,1436796782450,58.977101489614
185,1436796783171,53.4095100033163
186,1436796783890,54.0681074566149
187,1436796784557,64.1284330571348
188,1436796785154,53.6212866740819
189,1436796785833,44.1948852608013
190,1436796786536,45.7117225831727
191,1436796787257,43.4875340584996
192,1436796787958,47.559505410349
193,1436796788713,41.2481077330629
194,1436796789446,46.1933041623432
195,1436796790170,45.0065463345168
196,1436796790892,42.6836922124204
197,1436796791629,60.4407131456299
198,1436796792339,48.7564533868661
199,1436796793082,47.2758602445981
200,1436796793820,40.2902841404534
201,1436796794530,44.6329854244593
202,1436796795161,40.3648692483371
203,1436796795886,51.6129560589859
204,1436796796619,45.8985533506111
205,1436796797322,62.0281396241497
206,1436796798059,60.6741792845829
207,1436796798798,56.6180470714001
208,1436796799516,55.8840848117566
209,1436796800182,60.8349373851575
210,1436796800906,41.8902112117011
211,1436796801649,42.0987854520621
212,1436796802388,44.047989971746
213,1436796803118,44.3061743359156
214,1436796803856,52.5385091231891
215,1436796804666,43.738119893333
216,1436796805335,56.5538311541889
217,1436796806039,57.8151868630499
218,1436796806759,43.728580105581
219,1436796807479,52.6724513347532
220,1436796808206,50.5572750119818
221,1436796808920,40.9977930090791
222,1436796809630,55.0690248103596
223,1436796810225,36.9007763099901
224,1436796810922,44.2562829688895
225,1436796811678,54.8656043738248
226,1436796812405,42.1125147176162
227,1436796813149,43.4811033840872
228,1436796813873,48.6697444669028
229,1436796814588,51.1916951194776
230,1436796815259,54.505271227008
231,1436796816008,47.4137364215088
232,1436796816728,57.7894164515441
233,1436796817453,48.1725264511181
234,1436796818191,47.8003022080789
235,1436796818908,36.0960455478027
236,1436796819653,42.2669624932109
237,1436796820387,44.5706858086782
238,1436796821077,37.3115516943821
239,1436796821695,50.183967816855
240,1436796822407,44.8449042494456
241,1436796823123,51.7383637343619
242,1436796823829,41.9639176343016
243,1436796824522,53.618290105956
244,1436796825250,50.4019464772413
245,1436796825966,56.6532679641328
246,1436796826697,51.8051198908428
247,1436796827403,51.4353763179908
248,1436796828140,58.0891526396908
249,1436796828878,48.4519841746778
250,1436796829596,39.5507538831234
251,1436796830296,55.4842367104862
252,1436796831009,44.1706941473879
253,1436796831746,39.6356984114105
254,1436796832476,45.6057118231672
255,1436796833210,54.9697416397619
256,1436796833932,39.2862338050421
257,1436796835177,43.0832759662214
258,1436796835763,44.3473687854807
259,1436796836349,44.0289798473587
260,1436796836960,49.742879235845
261,1436796837637,47.491485717827
262,1436796838360,41.6611038993338
263,1436796840297,43.1466773246148
264,1436796840908,59.0400416639382
265,1436796841581,44.6160754579009
266,1436796842294,51.3998140199465
267,1436796843117,53.1653444654303
268,1436796843861,36.0013167340649
269,1436796844574,47.5401968747631
270,1436796845274,52.2374571718318
271,1436796846004,38.2946579057861
272,1436796846772,63.5032884505424
273,1436796847469,47.8452987667315
274,1436796848227,55.9646833259675
275,1436796848896,51.6699086338067
276,1436796849499,50.7299625683114
277,1436796850213,56.1290477137018
278,1436796850981,51.1343363373815
279,1436796851734,55.013163785359
280,1436796852422,47.2489110577052
281,1436796854292,56.2705629179961
282,1436796855035,47.3805623487634
283,1436796855710,42.7425427841167
284,1436796856313,44.9194685769372
285,1436796856973,44.5085659897188
286,1436796857715,53.5284207686021
287,1436796858463,63.7061604335933
288,1436796859172,52.5616956981317
289,1436796859909,67.6495262635764
290,1436796860655,58.588975810751
291,1436796861371,50.0743261021212
292,1436796862088,61.2220281612574
293,1436796862822,60.4622987929527
294,1436796863535,50.6567681032277
295,1436796864207,56.9695219558151
296,1436796864874,49.5187967729562
297,1436796865557,38.3586532979927
298,1436796866271,54.5936035389179
299,1436796866981,52.7033528441354
300,1436796867724,58.2559621732421
301,1436796868462,41.7752041872947
302,1436796869161,48.5286350951909
303,1436796869882,55.7487243247683
304,1436796870611,59.4108951808526
305,1436796871357,51.2378343040018
306,1436796872043,41.4609668903824
307,1436796872733,37.5045581240815
308,1436796873437,37.1396542422142
309,1436796874137,46.7803250714082
310,1436796874852,45.0861022772086
311,1436796875569,35.6515132261316
312,1436796877630,48.5905155179162
313,1436796878397,57.9232597117372
314,1436796879129,66.1296813115046
315,1436796879848,50.8072595520582
316,1436796880579,43.9033621086985
317,1436796881332,55.0999937719994
318,1436796882065,60.8945622057394
319,1436796882801,41.9763843911071
320,1436796883534,50.8433697816338
321,1436796884247,51.4218097007941
322,1436796884961,63.5456273445259
323,1436796885707,42.8572066359531
324,1436796886440,46.597778366689
325,1436796887180,52.0646276103708
326,1436796887901,49.9141440385664
327,1436796888636,39.8571065618177
328,1436796890170,52.2116963091665
329,1436796890888,41.3348737895336
330,1436796891585,54.2626946135244
331,1436796892235,48.5130677198176
332,1436796892946,46.6145472903764
333,1436796893664,43.1980895273651
334,1436796894343,52.4540721149352
335,1436796895074,47.7520722607526
336,1436796895833,38.2262986365344
337,1436796896491,38.6796771932116
338,1436796897164,45.3444892279819
339,1436796897853,49.8805485255693
340,1436796898476,34.4597264080411
341,1436796899131,35.2459540802015
342,1436796899817,49.797783692211
343,1436796900550,67.3709196908782
344,1436796901285,56.62738099588
345,1436796901939,51.5530051103269
346,1436796902706,44.1072353288966
347,1436796903479,58.4693284571945
348,1436796904231,39.9073324827872
349,1436796904937,45.7125543875941
350,1436796905667,53.1592983852646
351,1436796906363,35.2695679889683
352,1436796907032,53.7767986341297
353,1436796907746,60.1556187306104
354,1436796908445,38.0211511431137
355,1436796909136,53.7166143628531
356,1436796909803,54.708243507815
357,1436796910505,53.4109074330117
358,1436796911218,38.033759257001
359,1436796911938,43.868398692983
360,1436796912640,55.6862344574967
361,1436796913347,53.7945786477294
362,1436796914142,49.4625075712471
363,1436796914824,42.0740348122668
364,1436796915422,51.318237408807
365,1436796916129,54.1776930009968
366,1436796916901,48.7099748635164
367,1436796917655,48.6689898598816
368,1436796918400,64.7919162539706
369,1436796919141,50.0956200127005
370,1436796919880,53.5677243188899
371,1436796920534,36.4113390132687
372,1436796921250,48.8201924884902
373,1436796921986,60.7212495252101
374,1436796922726,49.349296720187
375,1436796923462,49.288257535062
376,1436796924188,48.2447314860555
377,1436796924907,57.8668771698619
378,1436796925576,45.7061053271974
379,1436796926208,41.0060074633464
380,1436796926893,50.4616806223164
381,1436796927627,34.5559649631538
382,1436796928413,42.6347168269688
383,1436796929127,41.9442546390205
384,1436796929855,44.3607547812709
385,1436796930558,38.801641855073
386,1436796931302,57.7931977528058
387,1436796932014,51.887288514985
388,1436796932768,47.3599286674304
389,1436796933504,49.3250474296777
390,1436796934235,48.9567471086291
391,1436796934988,55.9854256817477
392,1436796935713,58.1170522209877
393,1436796936430,34.3170259527348
394,1436796937156,31.3101916879293
395,1436796937909,41.7874461509722
396,1436796938609,48.1395735620606
397,1436796939274,46.6861685097386
398,1436796940011,58.077604330603
399,1436796940745,55.6272267416233
400,1436796941469,48.8849544045021
401,1436796942198,63.5045382116459
402,1436796942957,60.5223386614412
403,1436796943672,41.7320160038682
404,1436796944416,46.812509248005
405,1436796945137,37.9579247157111
406,1436796945840,47.6605346137184
407,1436796946512,54.212050149837
408,1436796947224,64.9051509300921
409,1436796947952,61.3667103737863
410,1436796948669,42.2335194401994
411,1436796949395,49.4795630164975
412,1436796950126,41.4042755859257
413,1436796950855,43.7614097854361
414,1436796951577,36.3470596515522
415,1436796952266,46.3304654067975
416,1436796953058,65.2334001068041
417,1436796953785,35.0515579902054
418,1436796954522,59.7854496231803
419,1436796955248,67.3288111678937
420,1436796955953,51.5829082652861
421,1436796956702,43.5637806554797
422,1436796957430,41.9441381003315
423,1436796958079,70.195148989404
424,1436796958777,56.0085096713977
425,1436796959499,51.6695900967574
426,1436796960206,61.6117125571327
427,1436796960914,52.7041782212733
428,1436796961635,41.3291290405678
429,1436796962302,57.5334076889273
430,1436796963038,64.9033805568169
431,1436796963774,60.9977661316946
432,1436796964506,68.1304351874458
433,1436796965234,52.071035956714
434,1436796965968,54.4360603797982
435,1436796966708,68.5306501263347
436,1436796967408,69.9699363983458
437,1436796968188,38.4384647199332
438,1436796968914,43.251154508916
439,1436796969490,44.5711779557606
440,1436796970162,37.9742102343603
441,1436796970885,32.2282022140748
442,1436796971611,47.2673953780565
443,1436796972346,62.1208501415556
444,1436796973126,43.8544371076401
445,1436796973915,56.6929496894377
446,1436796974660,66.4881185189528
447,1436796975378,42.668446016058
448,1436796976103,41.7142359435203
449,1436796976844,43.898544771173
450,1436796977551,61.8148965160947
451,1436796978350,38.7858667814632
452,1436796979010,61.4387376653728
453,1436796979685,45.1222011918863
454,1436796980415,35.2976487185106
455,1436796981141,48.7792000749258
456,1436796981866,42.7101023421596
457,1436796982585,28.6472113256439
458,1436796983349,47.1261611131657
459,1436796984038,52.8716440731177
460,1436796984706,47.7457999400634
461,1436796985431,49.0030364682182
462,1436796986164,37.2251119130399
463,1436796986952,52.9234862616451
464,1436796987733,35.3805887289042
465,1436796988460,61.268185417616
466,1436796989202,50.6392115283671
467,1436796989939,63.7259511406935
468,1436796990592,38.9747966371851
469,1436796991321,58.0641769891116
470,1436796992048,49.6754345067052
471,1436796992842,49.1811618277186
472,1436796993561,35.6254729601833
473,1436796994281,38.7096679295154
474,1436796995048,53.0650816095305
475,1436796995782,51.1505691414286
476,1436796996492,64.6493115505895
477,1436796997210,49.8026172152168
478,1436796997974,45.010616498063
479,1436796998686,53.0568301008157
480,1436796999410,59.3502949978203
481,1436797000095,55.6401945273264
482,1436797000751,40.2719913432215
483,1436797001463,35.36267458864
484,1436797002176,43.6905334778546
485,1436797002910,54.759624587541
486,1436797003603,38.5510967097793
487,1436797004337,41.0623960334661
488,1436797005058,44.1279093467956
489,1436797005868,38.1935390945468
490,1436797006597,41.7592160885138
491,1436797007327,44.5457832500847
492,1436797008040,39.0596171338612
493,1436797008775,37.8570543782739
494,1436797009490,59.0301977056679
495,1436797010173,46.9926414868779
496,1436797010845,55.1084836936938
497,1436797011561,52.1898220445258
498,1436797012355,52.3616546129944
499,1436797013094,57.7884222014726
500,1436797013846,50.17670468041
501,1436797014504,58.7784470569736
502,1436797015220,48.3116302939998
503,1436797015959,37.1092210722004
504,1436797016685,62.298783050206
505,1436797017412,50.3522709562163
506,1436797018122,53.9925180047827
507,1436797018905,54.2876293164185
508,1436797019661,58.1062979870574
509,1436797020371,45.106530374158
510,1436797021025,57.1238064502726
511,1436797021751,53.0820509048429
512,1436797022477,38.9468120693825
513,1436797023210,56.6505761128202
514,1436797023939,58.0523371718336
515,1436797024728,40.4309483126965
516,1436797025449,65.7736955294567
517,1436797026148,53.5341902666442
518,1436797026864,65.6497001569116
519,1436797027548,53.9625045776996
520,1436797028276,41.121307708488
521,1436797029001,67.0881151492821
522,1436797029742,61.3645441515171
523,1436797030466,53.9369692931772
524,1436797031158,49.5931359198921
525,1436797031858,48.3461030063535
526,1436797032578,58.4067195386929
527,1436797033276,49.9595209570752
528,1436797033987,57.317594935284
529,1436797034743,38.023020168593
530,1436797035472,43.1448672511571
531,1436797036196,36.7226724231934
532,1436797036937,32.5116888788884
533,1436797037715,46.6272446190927
534,1436797038310,50.5247880214819
535,1436797039013,52.3036272880026
536,1436797039760,59.8157034056449
537,1436797040462,52.8595751641308
538,1436797041148,54.3107891019749
539,1436797041826,50.4427969089072
540,1436797042542,34.3964552518684
541,1436797043268,51.0333060321177
542,1436797044734,37.9462398968625
543,1436797045453,46.4095755382943
544,1436797046193,53.3091805172373
545,1436797046915,58.7090879426477
546,1436797047652,42.230917276575
547,1436797048488,53.1272741043269
548,1436797049222,65.4660773076692
549,1436797049963,63.9954286401135
550,1436797050684,36.7360478341476
551,1436797051402,60.4569369181337
552,1436797052069,39.652064813019
553,1436797052821,66.792028602201
554,1436797053571,46.1281224767595
555,1436797054297,38.5421938645076
556,1436797055038,50.9435811644171
557,1436797055771,49.1422377749073
558,1436797056427,47.1957412663493
559,1436797057158,46.1263796166589
560,1436797057932,49.8103509519542
561,1436797058617,38.709009518471
562,1436797059298,59.7341417225553
563,1436797060037,58.4147816625125
564,1436797060722,42.5607023375357
565,1436797062388,50.0104720063206
566,1436797063067,49.9289032553077
567,1436797063789,52.5853644213925
568,1436797064516,60.4883662118744
569,1436797065234,49.8316102374642
570,1436797065969,63.5246871356079
571,1436797066678,56.1452401007073
572,1436797067417,59.9772481378372
573,1436797068133,40.7571411183349
574,1436797068861,48.7348244619589
575,1436797069577,46.6093276728324
