id,attr_time,attr_db
1,1436796648079,24.224283035229
2,1436796648824,42.270582419567
3,1436796649582,33.3420719640317
4,1436796650211,51.6405729581532
5,1436796650950,63.606853014569
6,1436796651672,43.2903595470088
7,1436796652421,40.3195147568859
8,1436796653145,21.8124519684532
9,1436796653875,50.3720892299274
10,1436796654620,55.6071426998146
11,1436796655351,59.6717497418312
12,1436796656091,35.7416349204303
13,1436796656837,27.8337216606836
14,1436796657509,32.4621918268232
15,1436796658241,32.2176178351768
16,1436796658971,38.2985231128773
17,1436796659686,33.9686136932201
18,1436796660594,10.867703083733
19,1436796661174,21.1234112348257
20,1436796661853,38.4584319857744
21,1436796662605,41.1138375075389
22,1436796663228,43.4479871094337
23,1436796663943,56.0549436699024
24,1436796664660,38.205240854004
25,1436796665385,39.8509685121451
26,1436796666152,36.075215684183
27,1436796666876,73.3207415152999
28,1436796667600,55.6877833561243
29,1436796668332,52.4860481942274
30,1436796669059,58.5188742565875
31,1436796669790,59.6285190074527
32,1436796670555,56.804892507746
33,1436796671306,57.7471573063268
34,1436796672048,62.9104854013267
35,1436796672801,44.6020312499639
36,1436796673574,48.4799897993787
37,1436796674303,52.3636326588683
38,1436796675038,40.6949651609125
39,1436796675871,51.397157256625
40,1436796676618,39.1463329141335
41,1436796677268,57.6682287855512
42,1436796677965,54.3021657969138
43,1436796678618,51.5669724986416
44,1436796679370,54.0223287097806
45,1436796680142,66.4771620671892
46,1436796680849,45.840171399766
47,1436796681558,56.9144741872156
48,1436796682224,49.2661871478939
49,1436796682951,56.8909285051018
50,1436796683690,57.8970400430894
51,1436796684448,52.7548277439247
52,1436796685187,38.3186516546328
53,1436796685932,51.3916662578161
54,1436796686661,49.9474537770287
55,1436796687449,64.8132398016833
56,1436796688153,51.9044179741184
57,1436796688818,45.4123247670508
58,1436796689560,62.2251216477744
59,1436796690225,57.4716897125854
60,1436796690992,54.2661416813905
61,1436796691724,47.7276879771248
62,1436796692486,56.8266401262755
63,1436796693236,41.6294560241676
64,1436796693867,47.2696860140934
65,1436796694564,59.1843812896743
66,1436796695268,58.4611778572502
67,1436796695944,69.1681044695823
68,1436796696770,67.5008220510301
69,1436796697481,56.2360466447923
70,1436796698223,44.5845747462449
71,1436796698979,50.7283704759857
72,1436796699679,62.4057913513989
73,1436796700331,56.9893260247386
74,1436796701129,59.3557732958997
75,1436796701868,61.7763991997717
76,1436796702698,50.5524673803169
77,1436796703381,44.580677970017
78,1436796704108,41.586977124461
79,1436796704856,54.9489550805107
80,1436796705604,46.885171927007
81,1436796706350,57.8144460193327
82,1436796707074,45.1269389961192
83,1436796707739,42.2893348099535
84,1436796708469,52.8945727929221
85,1436796709211,50.8655549692976
86,1436796709954,52.48308459573
87,1436796710681,57.6325149158829
88,1436796711371,41.9456371169817
89,1436796712103,41.4193212217992
90,1436796712840,46.2505191308636
91,1436796713601,52.2498111797751
92,1436796714333,28.5365697524873
93,1436796715055,60.0058073928288
94,1436796715803,45.4508374815743
95,1436796716598,43.5001205836674
96,1436796717225,50.1812157570221
97,1436796717940,61.3046007992998
98,1436796718681,58.6608526050093
99,1436796719414,70.5916989664263
100,1436796720150,48.7708990994269
101,1436796720891,47.6484025268991
102,1436796721599,54.656250277831
103,1436796722266,55.9649636711028
104,1436796722998,45.3804917372037
105,1436796723652,26.0626204330327
106,1436796724395,70.2970028003901
107,1436796725139,70.5055054986662
108,1436796725891,48.1714519041957
109,1436796726637,51.5295363677758
110,1436796727420,53.3495178035098
111,1436796728171,52.3411293535605
112,1436796728868,52.0238847302007
113,1436796729601,52.49567144878
114,1436796730329,50.7585745115451
115,1436796731071,48.5866666410389
116,1436796731883,45.4688103880049
117,1436796732685,48.2980828230306
118,1436796733353,50.4201349648149
119,1436796734026,51.438483796066
120,1436796734743,64.2205874506873
121,1436796735495,47.941043385796
122,1436796736245,58.3816333897354
123,1436796736994,58.6215525729199
124,1436796737669,52.9839982872235
125,1436796738391,58.0171658043368
126,1436796739042,46.4605404176583
127,1436796739787,41.7227334656479
128,1436796740518,47.1994157029051
129,1436796741263,47.8304644222135
130,1436796742000,44.1341162125458
131,1436796742750,24.4350060617419
132,1436796743468,46.2361403640292
133,1436796744176,43.2701897357755
134,1436796744846,39.2821381260562
135,1436796745534,50.0767500009977
136,1436796746155,45.147068295168
137,1436796746859,60.254826670789
138,1436796747604,50.3571569605339
139,1436796748385,34.0238591103537
140,1436796748978,36.4459253679175
141,1436796749641,39.7373312751972
142,1436796750411,50.7636683743905
143,1436796751149,35.4937926532734
144,1436796751879,55.5380562841012
145,1436796752614,48.0944733275063
146,1436796753328,42.3434620044886
147,1436796753996,46.0517288814419
148,1436796754942,56.6483678621519
149,1436796755572,38.349710812245
150,1436796756205,43.8625871727185
151,1436796756909,50.2718821532754
152,1436796757634,64.4943756794596
153,1436796758379,50.9421671556971
154,1436796759114,40.5265019999495
155,1436796759815,50.8829124764185
156,1436796760570,41.3274685854083
157,1436796761324,43.4480752475774
158,1436796762064,51.2152824531848
159,1436796762800,41.2676031313319
160,1436796763555,51.1011440300906
161,1436796764267,53.6534748862751
162,1436796764957,40.24865278499
163,1436796765614,46.1131975253763
164,1436796766294,46.1461707810734
165,1436796767013,47.2834211039011
166,1436796767735,42.9202319952995
167,1436796768504,46.0711106357728
168,1436796769256,53.8254289987741
169,1436796770012,45.8550877505624
170,1436796770727,56.7394114847379
171,1436796771388,52.4962030318438
172,1436796772146,38.5313534916398
173,1436796772879,54.8214048571542
174,1436796773595,42.5648573961523
175,1436796774235,47.7290967918055
176,1436796774950,48.8246560225658
177,1436796775695,52.3473696800371
178,1436796776398,56.785200249676
179,1436796776998,50.574127526649
180,1436796777605,42.9458149767113
181,1436796779024,40.8140494602484
182,1436796779671,69.6349536045334
183,1436796780416,65.733654191637
184,1436796781220,65.3983224436891
185,1436796781958,40.1375792769247
186,1436796782669,51.576843674935
187,1436796783353,50.952135658169
188,1436796783939,48.7856594153367
189,1436796784638,50.9008803341712
190,1436796785372,52.2293761200335
191,1436796786167,45.1727827652783
192,1436796786898,41.0336224087537
193,1436796787568,58.7177292943156
194,1436796789095,49.9308910137229
195,1436796789759,43.7126592572442
196,1436796790509,47.2416313483898
197,1436796791315,45.3992258393696
198,1436796792047,48.5830205106494
199,1436796792775,45.8284644945962
200,1436796793478,44.2776207006348
201,1436796794049,42.8115633987265
202,1436796794708,41.9993161976199
203,1436796795445,47.3823542614011
204,1436796796233,43.1818497645038
205,1436796796943,49.8296644636643
206,1436796797661,45.9202502868027
207,1436796798398,49.2598695333234
208,1436796799112,44.4654807351559
209,1436796799826,49.0609029619565
210,1436796800458,40.9078199512855
211,1436796801161,38.9979108704454
212,1436796801902,45.813379554805
213,1436796802619,36.5902452084568
214,1436796804322,52.0456892731418
215,1436796805056,48.1999823714967
216,1436796805785,47.0880047841084
217,1436796806520,41.260712103935
218,1436796807268,49.1642878577511
219,1436796807998,49.3586637351711
220,1436796808735,34.1510772978204
221,1436796809459,58.6497853734007
222,1436796810172,46.5927307083059
223,1436796810842,56.5044870573008
224,1436796811548,35.0531053959801
225,1436796812674,52.8892992051711
226,1436796813354,60.6128280980598
227,1436796814059,47.3202902386102
228,1436796814687,38.8132963061493
229,1436796815411,43.67384073515
230,1436796816205,56.4258306412477
231,1436796816866,47.0794362595911
232,1436796817623,44.265795224795
233,1436796818365,54.8494470644396
234,1436796819099,46.5211619494741
235,1436796819834,58.8226572022533
236,1436796820593,53.6949394059383
237,1436796821341,35.6254410496016
238,1436796822016,52.8560412998773
239,1436796822718,51.9360673936635
240,1436796823493,35.4229612009628
241,1436796824266,36.3275316130053
242,1436796825013,45.0936638040152
243,1436796825779,53.4304438639587
244,1436796826586,42.6663070638154
245,1436796827268,35.2939856635543
246,1436796827992,50.3282651934618
247,1436796828750,51.0071028835541
248,1436796829489,52.1945587136897
249,1436796830148,50.2345855979748
250,1436796830925,41.5537954518773
251,1436796831659,56.492401950093
252,1436796832386,43.3908790105821
253,1436796833065,53.878895410995
254,1436796833634,49.5591106123079
255,1436796834289,51.8759019927302
256,1436796835010,51.4379928599546
257,1436796835724,41.1214418809956
258,1436796836559,55.7563400043753
259,1436796837286,55.3758632460406
260,1436796838044,45.6420368569354
261,1436796838741,45.93272107841
262,1436796839473,43.3131720893381
263,1436796840184,39.5289262317406
264,1436796840949,63.9186606049635
265,1436796841711,48.5600470693141
266,1436796842429,51.6526388028181
267,1436796843132,51.5404335588692
268,1436796843823,59.2892510293752
269,1436796844560,34.7040070997848
270,1436796845309,51.2662631152327
271,1436796846076,48.9809433778803
272,1436796846789,55.4073175395029
273,1436796847519,58.5575521582216
274,1436796848180,41.3483278846626
275,1436796848913,59.4146859393557
276,1436796849665,59.9667661556382
277,1436796850402,45.4260778828542
278,1436796851139,61.5668062803125
279,1436796851883,61.6044980064464
280,1436796852616,41.6816213807283
281,1436796853350,55.8671015771468
282,1436796854108,58.2001462897293
283,1436796854806,36.9773902441044
284,1436796855489,51.9005081829273
285,1436796856213,44.0106936050905
286,1436796856937,43.7682786791103
287,1436796857663,59.1696603172592
288,1436796858403,51.9413886008386
289,1436796859134,39.6702696161274
290,1436796859902,50.8409088252357
291,1436796860606,68.7839900867915
292,1436796861261,41.8525141332472
293,1436796861985,37.1331890158876
294,1436796862721,54.3987376239854
295,1436796863436,41.4699654102043
296,1436796864103,43.9724916967258
297,1436796864838,60.0039275301358
298,1436796865485,57.0982163793553
299,1436796866231,55.4573929318364
300,1436796866949,46.6360168857341
301,1436796867673,43.7941706034728
302,1436796868455,57.5495868141054
303,1436796869115,39.7819590529136
304,1436796869687,50.8496626179983
305,1436796870288,58.9889679899157
306,1436796870868,59.7156733109883
307,1436796871463,46.3384550487152
308,1436796872114,43.1628454688575
309,1436796872804,47.3046240124459
310,1436796873562,41.6112860765827
311,1436796874335,45.4217598920774
312,1436796874910,37.4173735413534
313,1436796875460,37.2382166104518
314,1436796876012,35.0108589067975
315,1436796876588,36.1521037596823
316,1436796877666,42.4726251838618
317,1436796878323,67.0325443771664
318,1436796879038,61.5559211366528
319,1436796879819,49.8690965253494
320,1436796880516,39.5897949148121
321,1436796881071,37.9720600150437
322,1436796881641,47.1706870169792
323,1436796882191,43.4377750914361
324,1436796882745,53.6612401271842
325,1436796883405,43.4486334559702
326,1436796884164,37.9142359197082
327,1436796884824,60.2704741381663
328,1436796885403,65.8679470992938
329,1436796885974,57.1498742611019
330,1436796886571,43.8248726793763
331,1436796887149,51.2772326300842
332,1436796887700,40.1049767272479
333,1436796888862,48.1831824069315
334,1436796889685,40.3725405039331
335,1436796890338,33.6774337833428
336,1436796891073,55.5342475082899
337,1436796891887,37.6479408426217
338,1436796892565,35.9723532851458
339,1436796893141,39.6648260993853
340,1436796893699,40.1899095039586
341,1436796894276,45.5239894597515
342,1436796894901,48.2020385117424
343,1436796895594,59.5283525950263
344,1436796896255,56.5224596319959
345,1436796897089,49.7149664234645
346,1436796897671,49.1555694961398
347,1436796898246,49.0237787363613
348,1436796898803,47.7446099419695
349,1436796899362,49.2181389110951
350,1436796899898,57.1768118394109
351,1436796901385,55.3038232321583
352,1436796902144,45.3673703159119
353,1436796902874,41.695080852076
354,1436796903624,49.0074359358735
355,1436796904365,47.8159933416097
356,1436796905108,38.9317682871904
357,1436796905850,41.5397412284776
358,1436796906597,53.1769424898015
359,1436796907180,50.6039643335595
360,1436796907870,58.5806388101679
361,1436796908491,49.1471073113708
362,1436796909135,35.0369426771601
363,1436796909831,52.461238984498
364,1436796910574,41.0850760559431
365,1436796911302,41.6419511018906
366,1436796912006,47.6772123505502
367,1436796912742,41.4454776612392
368,1436796913516,33.0836004776082
369,1436796914240,42.318775974007
370,1436796914893,49.2436976349893
371,1436796915586,39.0935326594608
372,1436796916301,42.1105097259415
373,1436796917141,46.7421447128273
374,1436796917887,44.2603469415935
375,1436796918543,36.8882151321119
376,1436796919270,49.8482247740346
377,1436796920034,53.9552508643076
378,1436796920759,44.3269928624228
379,1436796921522,54.5477568180113
380,1436796922157,66.339420436531
381,1436796922846,39.7365194094596
382,1436796923602,36.4521441092912
383,1436796924336,56.8395973578809
384,1436796925088,43.0117687411299
385,1436796925813,43.2696727267654
386,1436796926581,49.5425490743117
387,1436796927314,50.8491408793006
388,1436796928044,53.3614778311791
389,1436796928754,46.1905335101849
390,1436796929429,48.084950980317
391,1436796930152,40.2291152679692
392,1436796930785,34.2509105768344
393,1436796931572,54.4047340757917
394,1436796932286,46.9495105274441
395,1436796932955,43.6120497711665
396,1436796933704,41.3357381544868
397,1436796934432,41.7286825989509
398,1436796935128,43.4801382214349
399,1436796935790,36.1779775411557
400,1436796936560,64.1088350105337
401,1436796937300,52.6551298183709
402,1436796938050,45.8567202988161
403,1436796938780,58.448251970658
404,1436796939416,45.9285530095092
405,1436796940037,58.7867347058139
406,1436796940683,46.874096905624
407,1436796941505,48.1120279946945
408,1436796942245,50.997846882498
409,1436796942976,47.621016954136
410,1436796943713,50.2021169286249
411,1436796944440,43.0009045358394
412,1436796945094,36.0330149683491
413,1436796945829,36.7129378134497
414,1436796946622,46.1066597977311
415,1436796947380,34.4288149635612
416,1436796948123,64.0558689295828
417,1436796948861,44.9717113748152
418,1436796949619,28.1679744042487
419,1436796950373,51.4392560943457
420,1436796951115,46.3371576521425
421,1436796951846,59.418369556734
422,1436796952594,44.5826697645376
423,1436796953333,50.2426089438879
424,1436796954058,36.9725806659417
425,1436796954779,60.2830535443081
426,1436796955538,51.565426428593
427,1436796956253,62.1814619336402
428,1436796956921,50.5526488001817
429,1436796957649,41.9588725038894
430,1436796958379,40.9041917670616
431,1436796959114,53.60878427622
432,1436796959853,45.2218869980927
433,1436796960586,39.9540398770586
434,1436796961291,59.3764074540075
435,1436796962084,66.6353803393
436,1436796962811,62.0558978824672
437,1436796963543,57.3223522911572
438,1436796964258,64.3973700207744
439,1436796964932,53.0871115316501
440,1436796965670,52.8266996660496
441,1436796966422,49.1681936584888
442,1436796967227,55.9396847111655
443,1436796967964,53.7978503488283
444,1436796968724,45.0817224138668
445,1436796969429,41.8238037342209
446,1436796970130,49.2233934844457
447,1436796970739,43.5162120319921
448,1436796971472,38.0325378703996
449,1436796972287,53.599154872403
450,1436796973010,55.1052437922234
451,1436796973734,58.1901405326945
452,1436796974450,59.9461616095268
453,1436796975079,73.3692372922646
454,1436796975675,67.5246366278966
455,1436796976394,44.6757449199952
456,1436796977122,40.2939466579834
457,1436796977850,53.8170502463437
458,1436796978615,39.3912218543362
459,1436796979239,41.8732547853951
460,1436796979968,39.7978952795989
461,1436796980710,62.2214446258392
462,1436796981421,32.6951640997326
463,1436796983246,30.7640265107035
464,1436796983990,54.7883696784119
465,1436796984719,55.9154111145986
466,1436796985465,40.1054519914799
467,1436796986195,60.1324272169079
468,1436796986960,40.0243861100339
469,1436796987584,56.0792041808141
470,1436796988266,35.8712311572087
471,1436796988988,53.017417115014
472,1436796989730,46.3156119566717
473,1436796990524,29.5360402252066
474,1436796991141,46.8448673398154
475,1436796991793,42.4089296268033
476,1436796992551,44.0364876972534
477,1436796993292,54.247516826218
478,1436796994035,51.6049661856849
479,1436796994773,44.8899080184582
480,1436796995490,41.044304132954
481,1436796997150,64.5327818936302
482,1436796997775,58.2149861202088
483,1436796998414,49.6244552315121
484,1436796999131,55.7145493950752
485,1436796999875,52.9638312358538
486,1436797000638,40.6094263090993
487,1436797001388,53.6851585018333
488,1436797002058,48.5716086387895
489,1436797002731,33.289440439044
490,1436797003452,54.7062103330324
491,1436797004196,48.6010151335959
492,1436797004950,49.8093313724959
493,1436797005688,44.7507556236822
494,1436797006426,42.5126295608279
495,1436797007168,42.1025444519857
496,1436797007855,41.9933771450908
497,1436797008595,32.5542650710549
498,1436797009342,40.4286663890516
499,1436797010068,57.8528599704921
500,1436797010812,40.66832658976
501,1436797011558,35.4673260360954
502,1436797012281,43.7439208681084
503,1436797013022,46.1271533045806
504,1436797013775,41.429062419141
505,1436797014522,55.7643473378891
506,1436797015262,38.8666935715937
507,1436797015983,43.2922245118219
508,1436797016729,59.900090482577
509,1436797017491,51.0149975195975
510,1436797018125,47.6049561901226
511,1436797018833,51.9419481186427
512,1436797020716,45.5162184950454
513,1436797021440,35.2115573476818
514,1436797022209,50.3464405128867
515,1436797022936,49.3235494172431
516,1436797023723,42.1085772512378
517,1436797024291,34.5079750768104
518,1436797024833,50.0478183922359
519,1436797025429,41.683464676563
520,1436797026023,42.5703659898489
521,1436797026754,53.2613576671518
522,1436797027486,53.3487133648207
523,1436797028256,40.3429966443837
524,1436797028843,50.8212908126637
525,1436797029414,63.2525942349853
526,1436797029960,60.7375304154269
527,1436797030522,58.5048172151141
528,1436797033037,38.9401462972274
529,1436797033748,51.331112180632
530,1436797034506,44.7108531758142
531,1436797035088,53.8689963142401
532,1436797035642,43.9635165517792
533,1436797036199,38.5380375034077
534,1436797036808,39.3990001075197
535,1436797037613,35.9012911659355
536,1436797038376,53.9064775566636
537,1436797039065,33.3355916959313
538,1436797039613,46.0979204791715
539,1436797040166,50.1788812507012
540,1436797040750,61.2934967955328
541,1436797041310,42.2836461460709
542,1436797042971,55.3431232115078
543,1436797043688,48.3362520059371
544,1436797044420,65.848432931752
545,1436797045141,49.9214431631458
546,1436797045736,44.5839608205405
547,1436797046313,56.6044900411909
548,1436797046889,42.0711763446625
549,1436797047469,50.8968015219841
550,1436797048090,50.4369348021213
551,1436797048821,49.4229712276719
552,1436797049550,61.1646024927044
553,1436797050115,56.3355008760337
554,1436797050691,47.4629180124276
555,1436797051241,36.4307086719248
556,1436797051791,51.6497797704496
557,1436797053133,65.419507441458
558,1436797053799,64.5285675354711
559,1436797054521,42.2459451364875
560,1436797055252,45.5776811476512
561,1436797055983,53.2280811944824
562,1436797056793,46.7461781425531
563,1436797057593,44.8125998566732
564,1436797058329,31.9929122578308
565,1436797059061,31.9846274221979
566,1436797059696,43.3147056696434
567,1436797060397,42.1869164182598
568,1436797061029,40.6820087413471
569,1436797061720,39.6811080728051
570,1436797062479,35.2112750277023
571,1436797063212,50.4944999689602
572,1436797063948,53.9589273915282
573,1436797064696,59.7665618274396
574,1436797065406,51.6960135465373
575,1436797066065,47.4879838774269
