id,attr_time,attr_light
1,1436803440006,5.0
2,1436803440029,5.0
3,1436803440048,5.0
4,1436803440067,5.0
5,1436803440088,5.0
6,1436803440111,5.0
7,1436803440131,5.0
8,1436803440150,5.0
9,1436803440168,5.0
10,1436803440189,5.0
11,1436803440205,5.0
12,1436803440226,5.0
13,1436803440270,5.0
14,1436803440271,5.0
15,1436803440286,5.0
16,1436803440307,5.0
17,1436803440326,5.0
18,1436803440345,5.0
19,1436803440368,5.0
20,1436803440387,5.0
21,1436803440406,5.0
22,1436803440430,5.0
23,1436803440450,5.0
24,1436803440469,5.0
25,1436803440487,5.0
26,1436803440510,5.0
27,1436803440530,5.0
28,1436803440550,5.0
29,1436803440570,5.0
30,1436803440590,5.0
31,1436803440610,5.0
32,1436803440630,5.0
33,1436803440650,5.0
34,1436803440667,5.0
35,1436803440687,5.0
36,1436803440708,5.0
37,1436803440731,5.0
38,1436803440751,5.0
39,1436803440772,5.0
40,1436803440792,5.0
41,1436803440807,5.0
42,1436803440827,5.0
43,1436803440848,5.0
44,1436803440868,5.0
45,1436803440887,5.0
46,1436803440943,5.0
47,1436803440944,5.0
48,1436803440951,5.0
49,1436803440967,5.0
50,1436803440987,5.0
51,1436803441008,5.0
52,1436803441027,5.0
53,1436803441052,5.0
54,1436803441067,5.0
55,1436803441087,5.0
56,1436803441109,5.0
57,1436803441129,5.0
58,1436803441150,5.0
59,1436803441169,5.0
60,1436803441190,5.0
61,1436803441210,5.0
62,1436803441230,5.0
63,1436803441250,5.0
64,1436803441270,5.0
65,1436803441290,5.0
66,1436803441310,5.0
67,1436803441330,5.0
68,1436803441349,5.0
69,1436803441371,5.0
70,1436803441391,5.0
71,1436803441410,5.0
72,1436803441430,5.0
73,1436803441451,5.0
74,1436803441469,5.0
75,1436803441490,5.0
76,1436803441510,5.0
77,1436803441531,5.0
78,1436803441551,5.0
79,1436803441569,5.0
80,1436803441588,5.0
81,1436803441688,5.0
82,1436803441689,5.0
83,1436803441690,5.0
84,1436803441691,5.0
85,1436803441692,5.0
86,1436803441708,5.0
87,1436803441728,5.0
88,1436803441749,5.0
89,1436803441768,5.0
90,1436803441788,5.0
91,1436803441822,5.0
92,1436803441829,5.0
93,1436803441850,5.0
94,1436803441869,5.0
95,1436803441890,5.0
96,1436803441908,5.0
97,1436803441929,5.0
98,1436803441951,5.0
99,1436803441970,5.0
100,1436803441991,5.0
101,1436803442011,5.0
102,1436803442031,5.0
103,1436803442051,5.0
104,1436803442071,5.0
105,1436803442092,5.0
106,1436803442109,5.0
107,1436803442131,5.0
108,1436803442150,5.0
109,1436803442171,5.0
110,1436803442189,5.0
111,1436803442211,5.0
112,1436803442231,5.0
113,1436803442252,5.0
114,1436803442271,5.0
115,1436803442290,5.0
116,1436803442308,5.0
117,1436803442330,5.0
118,1436803442350,5.0
119,1436803442368,5.0
120,1436803442422,5.0
121,1436803442425,5.0
122,1436803442440,5.0
123,1436803442448,5.0
124,1436803442468,5.0
125,1436803442488,5.0
126,1436803442508,5.0
127,1436803442531,5.0
128,1436803442548,5.0
129,1436803442569,5.0
130,1436803442595,5.0
131,1436803442609,5.0
132,1436803442630,5.0
133,1436803442651,5.0
134,1436803442672,5.0
135,1436803442692,5.0
136,1436803442712,5.0
137,1436803442732,5.0
138,1436803442752,5.0
139,1436803442772,5.0
140,1436803442790,5.0
141,1436803442810,5.0
142,1436803442829,5.0
143,1436803442851,5.0
144,1436803442872,5.0
145,1436803442892,5.0
146,1436803442912,5.0
147,1436803442931,5.0
148,1436803442951,5.0
149,1436803442972,5.0
150,1436803442992,5.0
151,1436803443012,5.0
152,1436803443032,5.0
153,1436803443049,5.0
154,1436803443069,5.0
155,1436803443090,5.0
156,1436803443157,5.0
157,1436803443158,5.0
158,1436803443159,5.0
159,1436803443179,5.0
160,1436803443189,5.0
161,1436803443213,5.0
162,1436803443229,5.0
163,1436803443249,5.0
164,1436803443269,5.0
165,1436803443291,5.0
166,1436803443312,5.0
167,1436803443332,5.0
168,1436803443353,5.0
169,1436803443371,5.0
170,1436803443391,5.0
171,1436803443412,5.0
172,1436803443432,5.0
173,1436803443452,5.0
174,1436803443472,5.0
175,1436803443493,5.0
176,1436803443513,5.0
177,1436803443533,5.0
178,1436803443552,5.0
179,1436803443571,5.0
180,1436803443593,5.0
181,1436803443609,5.0
182,1436803443629,5.0
183,1436803443649,5.0
184,1436803443675,5.0
185,1436803443693,5.0
186,1436803443715,5.0
187,1436803443733,5.0
188,1436803443749,5.0
189,1436803443769,5.0
190,1436803443789,5.0
191,1436803443810,5.0
192,1436803443832,5.0
193,1436803443901,5.0
194,1436803443902,5.0
195,1436803443903,5.0
196,1436803443910,5.0
197,1436803443930,5.0
198,1436803443953,5.0
199,1436803443970,5.0
200,1436803443990,5.0
201,1436803444023,5.0
202,1436803444031,5.0
203,1436803444051,5.0
204,1436803444072,5.0
205,1436803444090,5.0
206,1436803444113,5.0
207,1436803444133,5.0
208,1436803444153,5.0
209,1436803444173,5.0
210,1436803444191,5.0
211,1436803444213,5.0
212,1436803444233,5.0
213,1436803444253,5.0
214,1436803444273,5.0
215,1436803444296,5.0
216,1436803444313,5.0
217,1436803444336,5.0
218,1436803444354,5.0
219,1436803444376,5.0
220,1436803444393,5.0
221,1436803444410,5.0
222,1436803444430,5.0
223,1436803444450,5.0
224,1436803444476,5.0
225,1436803444494,5.0
226,1436803444522,5.0
227,1436803444531,5.0
228,1436803444601,5.0
229,1436803444602,5.0
230,1436803444603,5.0
231,1436803444612,5.0
232,1436803444630,5.0
233,1436803444650,5.0
234,1436803444671,5.0
235,1436803444690,5.0
236,1436803444717,5.0
237,1436803444744,5.0
238,1436803444762,5.0
239,1436803444770,5.0
240,1436803444791,5.0
241,1436803444811,5.0
242,1436803444834,5.0
243,1436803444851,5.0
244,1436803444874,5.0
245,1436803444894,5.0
246,1436803444911,5.0
247,1436803444931,5.0
248,1436803444951,5.0
249,1436803444971,5.0
250,1436803444991,5.0
251,1436803445013,5.0
252,1436803445037,5.0
253,1436803445055,5.0
254,1436803445073,5.0
255,1436803445097,5.0
256,1436803445117,5.0
257,1436803445133,5.0
258,1436803445151,5.0
259,1436803445171,5.0
260,1436803445191,5.0
261,1436803445217,5.0
262,1436803445233,5.0
263,1436803445253,5.0
264,1436803445272,5.0
265,1436803445300,5.0
266,1436803445371,5.0
267,1436803445372,5.0
268,1436803445373,5.0
269,1436803445374,5.0
270,1436803445395,5.0
271,1436803445411,5.0
272,1436803445431,5.0
273,1436803445457,5.0
274,1436803445472,5.0
275,1436803445494,5.0
276,1436803445513,5.0
277,1436803445532,5.0
278,1436803445558,5.0
279,1436803445575,5.0
280,1436803445595,5.0
281,1436803445615,5.0
282,1436803445633,5.0
283,1436803445655,5.0
284,1436803445675,5.0
285,1436803445693,5.0
286,1436803445715,5.0
287,1436803445735,5.0
288,1436803445754,5.0
289,1436803445771,5.0
290,1436803445795,5.0
291,1436803445811,5.0
292,1436803445833,5.0
293,1436803445852,5.0
294,1436803445874,5.0
295,1436803445898,5.0
296,1436803445914,5.0
297,1436803445935,5.0
298,1436803445953,5.0
299,1436803445974,5.0
300,1436803445992,5.0
301,1436803446014,5.0
302,1436803446035,5.0
303,1436803446107,6.0
304,1436803446112,6.0
305,1436803446113,6.0
306,1436803446114,6.0
307,1436803446134,6.0
308,1436803446155,6.0
309,1436803446172,6.0
310,1436803446199,6.0
311,1436803446214,6.0
312,1436803446234,6.0
313,1436803446253,6.0
314,1436803446272,6.0
315,1436803446293,6.0
316,1436803446315,6.0
317,1436803446353,6.0
318,1436803446354,6.0
319,1436803446387,6.0
320,1436803446392,6.0
321,1436803446412,6.0
322,1436803446432,6.0
323,1436803446452,6.0
324,1436803446472,6.0
325,1436803446492,6.0
326,1436803446512,6.0
327,1436803446532,6.0
328,1436803446552,6.0
329,1436803446571,6.0
330,1436803446591,6.0
331,1436803446611,6.0
332,1436803446635,6.0
333,1436803446655,6.0
334,1436803446675,6.0
335,1436803446694,6.0
336,1436803446712,6.0
337,1436803446733,6.0
338,1436803446773,6.0
339,1436803446774,6.0
340,1436803446791,6.0
341,1436803446812,6.0
342,1436803446833,6.0
343,1436803446853,6.0
344,1436803446872,6.0
345,1436803446892,6.0
346,1436803446911,6.0
347,1436803446936,6.0
348,1436803446955,6.0
349,1436803446976,6.0
350,1436803446992,6.0
351,1436803447012,6.0
352,1436803447035,6.0
353,1436803447056,6.0
354,1436803447076,6.0
355,1436803447096,6.0
356,1436803447117,6.0
357,1436803447137,6.0
358,1436803447152,6.0
359,1436803447177,6.0
360,1436803447195,6.0
361,1436803447213,6.0
362,1436803447235,6.0
363,1436803447256,6.0
364,1436803447276,6.0
365,1436803447297,6.0
366,1436803447317,6.0
367,1436803447334,6.0
368,1436803447353,6.0
369,1436803447373,6.0
370,1436803447394,6.0
371,1436803447413,6.0
372,1436803447451,6.0
373,1436803447453,6.0
374,1436803447473,6.0
375,1436803447497,6.0
376,1436803447516,6.0
377,1436803447532,6.0
378,1436803447557,6.0
379,1436803447575,6.0
380,1436803447597,6.0
381,1436803447628,6.0
382,1436803447634,6.0
383,1436803447659,6.0
384,1436803447677,6.0
385,1436803447696,6.0
386,1436803447717,6.0
387,1436803447737,6.0
388,1436803447780,6.0
389,1436803447781,6.0
390,1436803447796,6.0
391,1436803447817,6.0
392,1436803447838,6.0
393,1436803447855,6.0
394,1436803447877,6.0
395,1436803447895,6.0
396,1436803447914,6.0
397,1436803447934,6.0
398,1436803447959,6.0
399,1436803447977,6.0
400,1436803447999,6.0
401,1436803448017,6.0
402,1436803448035,6.0
403,1436803448054,6.0
404,1436803448074,6.0
405,1436803448095,6.0
406,1436803448120,6.0
407,1436803448187,6.0
408,1436803448188,6.0
409,1436803448189,6.0
410,1436803448197,6.0
411,1436803448215,6.0
412,1436803448234,6.0
413,1436803448254,6.0
414,1436803448274,6.0
415,1436803448297,6.0
416,1436803448315,6.0
417,1436803448336,6.0
418,1436803448357,6.0
419,1436803448374,6.0
420,1436803448397,6.0
421,1436803448417,6.0
422,1436803448437,6.0
423,1436803448458,6.0
424,1436803448477,6.0
425,1436803448497,6.0
426,1436803448517,6.0
427,1436803448538,6.0
428,1436803448556,6.0
429,1436803448589,6.0
430,1436803448595,6.0
431,1436803448620,6.0
432,1436803448642,6.0
433,1436803448660,6.0
434,1436803448677,6.0
435,1436803448695,6.0
436,1436803448715,6.0
437,1436803448735,6.0
438,1436803448760,6.0
439,1436803448781,6.0
440,1436803448797,6.0
441,1436803448816,6.0
442,1436803448847,6.0
443,1436803448909,6.0
444,1436803448910,6.0
445,1436803448911,6.0
446,1436803448919,6.0
447,1436803448937,6.0
448,1436803448957,6.0
449,1436803448975,6.0
450,1436803448995,6.0
451,1436803449017,6.0
452,1436803449036,6.0
453,1436803449057,6.0
454,1436803449076,6.0
455,1436803449098,6.0
456,1436803449118,6.0
457,1436803449138,6.0
458,1436803449156,6.0
459,1436803449177,6.0
460,1436803449198,6.0
461,1436803449218,6.0
462,1436803449238,6.0
463,1436803449258,6.0
464,1436803449278,6.0
465,1436803449297,6.0
466,1436803449318,6.0
467,1436803449338,6.0
468,1436803449358,6.0
469,1436803449378,6.0
470,1436803449398,6.0
471,1436803449417,6.0
472,1436803449437,6.0
473,1436803449457,6.0
474,1436803449478,6.0
475,1436803449498,6.0
476,1436803449518,6.0
477,1436803449538,6.0
478,1436803449648,6.0
479,1436803449649,6.0
480,1436803449650,6.0
481,1436803449651,6.0
482,1436803449652,6.0
483,1436803449680,6.0
484,1436803449681,6.0
485,1436803449695,6.0
486,1436803449717,6.0
487,1436803449735,6.0
488,1436803449758,6.0
489,1436803449776,6.0
490,1436803449797,6.0
491,1436803449820,6.0
492,1436803449836,6.0
493,1436803449856,6.0
494,1436803449875,6.0
495,1436803449896,6.0
496,1436803449918,6.0
497,1436803449938,6.0
498,1436803449959,6.0
499,1436803449979,6.0
500,1436803449999,6.0
501,1436803450019,6.0
502,1436803450040,6.0
503,1436803450056,6.0
504,1436803450079,6.0
505,1436803450099,6.0
506,1436803450119,6.0
507,1436803450139,6.0
508,1436803450158,6.0
509,1436803450180,6.0
510,1436803450200,6.0
511,1436803450219,6.0
512,1436803450240,6.0
513,1436803450261,6.0
514,1436803450280,6.0
515,1436803450299,6.0
516,1436803450407,6.0
517,1436803450408,6.0
518,1436803450409,6.0
519,1436803450410,6.0
520,1436803450411,6.0
521,1436803450431,6.0
522,1436803450440,6.0
523,1436803450459,6.0
524,1436803450476,6.0
525,1436803450496,6.0
526,1436803450516,6.0
527,1436803450540,6.0
528,1436803450561,6.0
529,1436803450579,6.0
530,1436803450596,6.0
531,1436803450616,6.0
532,1436803450636,6.0
533,1436803450659,6.0
534,1436803450680,6.0
535,1436803450699,6.0
536,1436803450719,6.0
537,1436803450739,6.0
538,1436803450759,6.0
539,1436803450780,6.0
540,1436803450798,6.0
541,1436803450818,6.0
542,1436803450839,6.0
543,1436803450857,6.0
544,1436803450876,6.0
545,1436803450899,6.0
546,1436803450922,6.0
547,1436803450941,6.0
548,1436803450962,6.0
549,1436803450980,6.0
550,1436803450996,6.0
551,1436803451016,6.0
552,1436803451037,6.0
553,1436803451058,6.0
554,1436803451077,6.0
555,1436803451148,6.0
556,1436803451149,6.0
557,1436803451150,6.0
558,1436803451157,6.0
559,1436803451177,6.0
560,1436803451197,6.0
561,1436803451217,6.0
562,1436803451240,6.0
563,1436803451257,6.0
564,1436803451277,6.0
565,1436803451299,6.0
566,1436803451318,6.0
567,1436803451340,6.0
568,1436803451361,6.0
569,1436803451380,6.0
570,1436803451400,6.0
571,1436803451420,6.0
572,1436803451440,6.0
573,1436803451460,6.0
574,1436803451481,6.0
575,1436803451500,6.0
576,1436803451520,6.0
577,1436803451545,6.0
578,1436803451559,6.0
579,1436803451588,6.0
580,1436803451603,6.0
581,1436803451633,6.0
582,1436803451639,6.0
583,1436803451657,6.0
584,1436803451677,6.0
585,1436803451697,6.0
586,1436803451723,6.0
587,1436803451743,6.0
588,1436803451764,6.0
589,1436803451780,6.0
590,1436803451814,6.0
591,1436803451879,6.0
592,1436803451880,6.0
593,1436803451881,6.0
594,1436803451882,6.0
595,1436803451898,6.0
596,1436803451918,6.0
597,1436803451940,6.0
598,1436803451957,6.0
599,1436803451978,6.0
600,1436803451999,6.0
601,1436803452018,6.0
602,1436803452038,6.0
603,1436803452061,6.0
604,1436803452081,6.0
605,1436803452101,6.0
606,1436803452121,6.0
607,1436803452141,6.0
608,1436803452161,6.0
609,1436803452182,6.0
610,1436803452201,6.0
611,1436803452221,6.0
612,1436803452241,6.0
613,1436803452260,6.0
614,1436803452279,6.0
615,1436803452301,6.0
616,1436803452321,6.0
617,1436803452344,6.0
618,1436803452363,6.0
619,1436803452381,6.0
620,1436803452399,6.0
621,1436803452419,6.0
622,1436803452439,6.0
623,1436803452460,6.0
624,1436803452481,6.0
625,1436803452500,6.0
626,1436803452518,6.0
627,1436803452648,6.0
628,1436803452649,6.0
629,1436803452650,6.0
630,1436803452651,6.0
631,1436803452652,6.0
632,1436803452653,6.0
633,1436803452668,6.0
634,1436803452678,6.0
635,1436803452698,6.0
636,1436803452718,6.0
637,1436803452738,6.0
638,1436803452761,6.0
639,1436803452779,6.0
640,1436803452799,6.0
641,1436803452819,6.0
642,1436803452840,6.0
643,1436803452861,6.0
644,1436803452882,6.0
645,1436803452902,6.0
646,1436803452922,6.0
647,1436803452941,6.0
648,1436803452960,6.0
649,1436803452981,6.0
650,1436803453002,6.0
651,1436803453022,6.0
652,1436803453041,6.0
653,1436803453059,6.0
654,1436803453082,6.0
655,1436803453101,6.0
656,1436803453121,6.0
657,1436803453141,6.0
658,1436803453161,6.0
659,1436803453181,6.0
660,1436803453202,6.0
661,1436803453222,6.0
662,1436803453242,6.0
663,1436803453262,6.0
664,1436803453281,6.0
665,1436803453301,6.0
666,1436803453325,6.0
667,1436803453393,6.0
668,1436803453394,6.0
669,1436803453395,6.0
670,1436803453403,6.0
671,1436803453429,6.0
672,1436803453440,6.0
673,1436803453459,6.0
674,1436803453480,6.0
675,1436803453500,6.0
676,1436803453526,6.0
677,1436803453546,5.0
678,1436803453561,5.0
679,1436803453584,4.0
680,1436803453602,4.0
681,1436803453619,4.0
682,1436803453641,4.0
683,1436803453664,3.0
684,1436803453679,3.0
685,1436803453709,3.0
686,1436803453723,3.0
687,1436803453739,3.0
688,1436803453759,3.0
689,1436803453779,3.0
690,1436803453799,4.0
691,1436803453819,4.0
692,1436803453842,4.0
693,1436803453866,4.0
694,1436803453879,3.0
695,1436803453899,3.0
696,1436803453923,4.0
697,1436803453940,3.0
698,1436803453961,3.0
699,1436803453980,2.0
700,1436803454000,2.0
701,1436803454033,2.0
702,1436803454221,2.0
703,1436803454222,2.0
704,1436803454223,2.0
705,1436803454224,1.0
706,1436803454225,1.0
707,1436803454236,1.0
708,1436803454237,1.0
709,1436803454238,1.0
710,1436803454239,1.0
711,1436803454240,1.0
712,1436803454269,1.0
713,1436803454279,1.0
714,1436803454280,1.0
715,1436803454299,1.0
716,1436803454319,1.0
717,1436803454339,1.0
718,1436803454363,1.0
719,1436803454379,1.0
720,1436803454399,1.0
721,1436803454418,1.0
722,1436803454438,1.0
723,1436803454458,1.0
724,1436803454478,1.0
725,1436803454498,1.0
726,1436803454518,1.0
727,1436803454538,1.0
728,1436803454558,1.0
729,1436803454578,1.0
730,1436803454598,1.0
731,1436803454618,1.0
732,1436803454640,1.0
733,1436803454660,1.0
734,1436803454679,2.0
735,1436803454701,2.0
736,1436803454726,2.0
737,1436803454741,2.0
738,1436803454760,2.0
739,1436803454783,2.0
740,1436803454823,3.0
741,1436803454824,3.0
742,1436803454841,3.0
743,1436803454862,5.0
744,1436803454880,5.0
745,1436803454903,6.0
746,1436803454919,6.0
747,1436803454940,6.0
748,1436803454960,6.0
749,1436803454982,6.0
750,1436803455001,6.0
751,1436803455021,7.0
752,1436803455041,8.0
753,1436803455063,8.0
754,1436803455083,9.0
755,1436803455100,9.0
756,1436803455121,11.0
757,1436803455140,11.0
758,1436803455162,12.0
759,1436803455183,12.0
760,1436803455201,14.0
761,1436803455226,14.0
762,1436803455244,16.0
763,1436803455265,19.0
764,1436803455284,19.0
765,1436803455301,23.0
766,1436803455324,23.0
767,1436803455342,26.0
768,1436803455364,26.0
769,1436803455386,29.0
770,1436803455405,29.0
771,1436803455424,32.0
772,1436803455444,32.0
773,1436803455520,34.0
774,1436803455521,37.0
775,1436803455522,37.0
776,1436803455523,40.0
777,1436803455541,40.0
778,1436803455563,39.0
779,1436803455581,39.0
780,1436803455601,37.0
781,1436803455623,37.0
782,1436803455643,44.0
783,1436803455661,44.0
784,1436803455682,51.0
785,1436803455701,51.0
786,1436803455724,51.0
787,1436803455745,53.0
788,1436803455763,53.0
789,1436803455787,55.0
790,1436803455808,55.0
791,1436803455824,56.0
792,1436803455845,56.0
793,1436803455862,53.0
794,1436803455883,53.0
795,1436803455903,55.0
796,1436803455922,54.0
797,1436803455943,54.0
798,1436803455963,53.0
799,1436803455983,53.0
800,1436803456002,54.0
801,1436803456025,54.0
802,1436803456048,53.0
803,1436803456063,53.0
804,1436803456085,52.0
805,1436803456115,52.0
806,1436803456131,51.0
807,1436803456141,49.0
808,1436803456161,49.0
809,1436803456203,47.0
810,1436803456204,47.0
811,1436803456223,44.0
812,1436803456241,44.0
813,1436803456262,43.0
814,1436803456282,43.0
815,1436803456302,42.0
816,1436803456335,42.0
817,1436803456354,41.0
818,1436803456362,40.0
819,1436803456382,40.0
820,1436803456403,39.0
821,1436803456422,39.0
822,1436803456445,37.0
823,1436803456466,37.0
824,1436803456484,36.0
825,1436803456504,36.0
826,1436803456521,34.0
827,1436803456544,34.0
828,1436803456566,33.0
829,1436803456592,32.0
830,1436803456629,32.0
831,1436803456630,31.0
832,1436803456642,31.0
833,1436803456662,30.0
834,1436803456682,30.0
835,1436803456702,30.0
836,1436803456722,30.0
837,1436803456742,31.0
838,1436803456762,31.0
839,1436803456782,31.0
840,1436803456802,32.0
841,1436803456822,32.0
842,1436803456844,33.0
843,1436803456862,33.0
844,1436803456933,33.0
845,1436803456934,33.0
846,1436803456935,34.0
847,1436803456948,34.0
848,1436803456962,34.0
849,1436803456982,34.0
850,1436803457009,36.0
851,1436803457023,40.0
852,1436803457042,40.0
853,1436803457062,42.0
854,1436803457082,42.0
855,1436803457104,44.0
856,1436803457122,44.0
857,1436803457142,45.0
858,1436803457162,45.0
859,1436803457185,46.0
860,1436803457206,46.0
861,1436803457226,47.0
862,1436803457243,47.0
863,1436803457262,47.0
864,1436803457285,47.0
865,1436803457306,47.0
866,1436803457325,46.0
867,1436803457342,46.0
868,1436803457363,45.0
869,1436803457384,45.0
870,1436803457404,47.0
871,1436803457423,47.0
872,1436803457447,43.0
873,1436803457466,43.0
874,1436803457483,43.0
875,1436803457502,44.0
876,1436803457527,44.0
877,1436803457542,45.0
878,1436803457564,45.0
879,1436803457587,44.0
880,1436803457612,44.0
881,1436803457623,44.0
882,1436803457642,44.0
883,1436803457661,44.0
884,1436803457682,44.0
885,1436803457706,44.0
886,1436803457727,44.0
887,1436803457743,44.0
888,1436803457793,44.0
889,1436803457794,44.0
890,1436803457807,44.0
891,1436803457823,44.0
892,1436803457860,44.0
893,1436803457863,44.0
894,1436803457894,44.0
895,1436803457903,44.0
896,1436803457923,44.0
897,1436803457943,44.0
898,1436803457964,44.0
899,1436803457986,44.0
900,1436803458006,44.0
901,1436803458025,44.0
902,1436803458046,44.0
903,1436803458066,45.0
904,1436803458086,45.0
905,1436803458106,45.0
906,1436803458127,45.0
