id,attr_time,attr_light
1,1436621318016,295.0
2,1436621318036,295.0
3,1436621318056,296.0
4,1436621318076,296.0
5,1436621318096,296.0
6,1436621318116,297.0
7,1436621318136,297.0
8,1436621318156,298.0
9,1436621318176,298.0
10,1436621318196,298.0
11,1436621318217,298.0
12,1436621318236,297.0
13,1436621318256,297.0
14,1436621318276,298.0
15,1436621318296,297.0
16,1436621318316,297.0
17,1436621318336,298.0
18,1436621318356,298.0
19,1436621318376,298.0
20,1436621318396,298.0
21,1436621318416,299.0
22,1436621318436,299.0
23,1436621318456,299.0
24,1436621318476,299.0
25,1436621318496,299.0
26,1436621318516,300.0
27,1436621318537,300.0
28,1436621318557,300.0
29,1436621318577,300.0
30,1436621318597,300.0
31,1436621318617,300.0
32,1436621318637,301.0
33,1436621318657,301.0
34,1436621318677,301.0
35,1436621318697,301.0
36,1436621318717,301.0
37,1436621318737,301.0
38,1436621318757,301.0
39,1436621318777,301.0
40,1436621318797,301.0
41,1436621318817,301.0
42,1436621318837,301.0
43,1436621318857,301.0
44,1436621318877,301.0
45,1436621318897,301.0
46,1436621318917,301.0
47,1436621318937,301.0
48,1436621318957,301.0
49,1436621318977,301.0
50,1436621318997,300.0
51,1436621319017,300.0
52,1436621319037,300.0
53,1436621319057,300.0
54,1436621319077,298.0
55,1436621319097,298.0
56,1436621319117,297.0
57,1436621319137,297.0
58,1436621319157,295.0
59,1436621319177,291.0
60,1436621319197,291.0
61,1436621319217,289.0
62,1436621319238,289.0
63,1436621319257,287.0
64,1436621319277,287.0
65,1436621319297,285.0
66,1436621319317,285.0
67,1436621319337,282.0
68,1436621319357,279.0
69,1436621319377,279.0
70,1436621319397,277.0
71,1436621319418,277.0
72,1436621319437,276.0
73,1436621319457,276.0
74,1436621319477,274.0
75,1436621319498,274.0
76,1436621319518,272.0
77,1436621319538,272.0
78,1436621319558,271.0
79,1436621319578,271.0
80,1436621319598,271.0
81,1436621319618,271.0
82,1436621319639,271.0
83,1436621319658,272.0
84,1436621319678,272.0
85,1436621319698,275.0
86,1436621319718,275.0
87,1436621319738,277.0
88,1436621319758,277.0
89,1436621319778,279.0
90,1436621319798,281.0
91,1436621319818,281.0
92,1436621319838,282.0
93,1436621319858,282.0
94,1436621319878,284.0
95,1436621319898,284.0
96,1436621319923,286.0
97,1436621319938,286.0
98,1436621319958,287.0
99,1436621319978,287.0
100,1436621319998,289.0
101,1436621320018,291.0
102,1436621320038,291.0
103,1436621320058,294.0
104,1436621320078,294.0
105,1436621320098,296.0
106,1436621320118,296.0
107,1436621320138,298.0
108,1436621320158,298.0
109,1436621320178,300.0
110,1436621320198,300.0
111,1436621320218,302.0
112,1436621320238,302.0
113,1436621320258,302.0
114,1436621320278,303.0
115,1436621320298,303.0
116,1436621320318,304.0
117,1436621320338,304.0
118,1436621320358,304.0
119,1436621320378,304.0
120,1436621320398,304.0
121,1436621320418,304.0
122,1436621320438,304.0
123,1436621320458,304.0
124,1436621320478,304.0
125,1436621320498,304.0
126,1436621320518,304.0
127,1436621320539,304.0
128,1436621320558,304.0
129,1436621320579,304.0
130,1436621320599,304.0
131,1436621320619,303.0
132,1436621320639,303.0
133,1436621320659,303.0
134,1436621320679,304.0
135,1436621320699,304.0
136,1436621320719,304.0
137,1436621320739,304.0
138,1436621320759,304.0
139,1436621320779,304.0
140,1436621320799,304.0
141,1436621320819,304.0
142,1436621320839,303.0
143,1436621320859,303.0
144,1436621320879,303.0
145,1436621320899,303.0
146,1436621320919,303.0
147,1436621320939,303.0
148,1436621320959,303.0
149,1436621320979,303.0
150,1436621320999,303.0
151,1436621321019,304.0
152,1436621321039,304.0
153,1436621321059,303.0
154,1436621321079,303.0
155,1436621321099,303.0
156,1436621321119,301.0
157,1436621321139,301.0
158,1436621321159,298.0
159,1436621321179,298.0
160,1436621321199,296.0
161,1436621321219,296.0
162,1436621321239,292.0
163,1436621321259,292.0
164,1436621321279,288.0
165,1436621321299,285.0
166,1436621321319,285.0
167,1436621321339,283.0
168,1436621321359,283.0
169,1436621321379,281.0
170,1436621321399,281.0
171,1436621321419,279.0
172,1436621321439,279.0
173,1436621321459,277.0
174,1436621321479,277.0
175,1436621321499,274.0
176,1436621321519,273.0
177,1436621321540,273.0
178,1436621321559,272.0
179,1436621321579,272.0
180,1436621321600,271.0
181,1436621321620,271.0
182,1436621321640,272.0
183,1436621321660,272.0
184,1436621321680,273.0
185,1436621321700,273.0
186,1436621321720,274.0
187,1436621321740,275.0
188,1436621321760,275.0
189,1436621321780,277.0
190,1436621321800,277.0
191,1436621321820,279.0
192,1436621321840,279.0
193,1436621321860,283.0
194,1436621321880,283.0
195,1436621321900,287.0
196,1436621321920,290.0
197,1436621321940,290.0
198,1436621321960,292.0
199,1436621321980,292.0
200,1436621322000,293.0
201,1436621322020,293.0
202,1436621322040,297.0
203,1436621322060,297.0
204,1436621322080,303.0
205,1436621322100,303.0
206,1436621322120,306.0
207,1436621322140,308.0
208,1436621322161,308.0
209,1436621322180,309.0
210,1436621322200,309.0
211,1436621322220,310.0
212,1436621322243,310.0
213,1436621322260,310.0
214,1436621322280,310.0
215,1436621322300,310.0
216,1436621322320,310.0
217,1436621322340,310.0
218,1436621322360,309.0
219,1436621322380,309.0
220,1436621322400,309.0
221,1436621322420,309.0
222,1436621322440,309.0
223,1436621322460,309.0
224,1436621322480,308.0
225,1436621322500,308.0
226,1436621322520,308.0
227,1436621322540,308.0
228,1436621322560,307.0
229,1436621322580,307.0
230,1436621322600,307.0
231,1436621322620,307.0
232,1436621322640,307.0
233,1436621322661,306.0
234,1436621322680,306.0
235,1436621322701,307.0
236,1436621322721,307.0
237,1436621322741,307.0
238,1436621322761,307.0
239,1436621322781,307.0
240,1436621322801,307.0
241,1436621322821,307.0
242,1436621322841,306.0
243,1436621322861,306.0
244,1436621322881,305.0
245,1436621322901,305.0
246,1436621322921,305.0
247,1436621322941,305.0
248,1436621322961,304.0
249,1436621322981,304.0
250,1436621323001,304.0
251,1436621323021,303.0
252,1436621323041,303.0
253,1436621323061,303.0
254,1436621323081,303.0
255,1436621323101,303.0
256,1436621323133,303.0
257,1436621323141,302.0
258,1436621323161,302.0
259,1436621323181,302.0
260,1436621323201,301.0
261,1436621323221,301.0
262,1436621323241,300.0
263,1436621323261,300.0
264,1436621323281,300.0
265,1436621323301,300.0
266,1436621323321,300.0
267,1436621323341,300.0
268,1436621323361,300.0
269,1436621323381,300.0
270,1436621323401,300.0
271,1436621323421,300.0
272,1436621323441,300.0
273,1436621323461,300.0
274,1436621323481,300.0
275,1436621323501,299.0
276,1436621323521,299.0
277,1436621323541,299.0
278,1436621323561,299.0
279,1436621323581,299.0
280,1436621323601,299.0
281,1436621323621,299.0
282,1436621323641,299.0
283,1436621323662,299.0
284,1436621323682,297.0
285,1436621323702,297.0
286,1436621323722,295.0
287,1436621323742,295.0
288,1436621323762,294.0
289,1436621323782,294.0
290,1436621323802,293.0
291,1436621323822,293.0
292,1436621323842,291.0
293,1436621323862,289.0
294,1436621323882,289.0
295,1436621323902,287.0
296,1436621323922,287.0
297,1436621323942,285.0
298,1436621323962,285.0
299,1436621323982,284.0
300,1436621324002,284.0
301,1436621324022,283.0
302,1436621324042,283.0
303,1436621324062,284.0
304,1436621324082,283.0
305,1436621324102,283.0
306,1436621324122,284.0
307,1436621324142,284.0
308,1436621324162,285.0
309,1436621324182,285.0
310,1436621324202,285.0
311,1436621324222,285.0
312,1436621324242,286.0
313,1436621324262,286.0
314,1436621324282,287.0
315,1436621324302,288.0
316,1436621324322,288.0
317,1436621324342,288.0
318,1436621324362,288.0
319,1436621324382,290.0
320,1436621324402,290.0
321,1436621324422,292.0
322,1436621324442,292.0
323,1436621324462,294.0
324,1436621324482,295.0
325,1436621324502,295.0
326,1436621324522,297.0
327,1436621324542,297.0
328,1436621324562,297.0
329,1436621324582,297.0
330,1436621324602,299.0
331,1436621324622,299.0
332,1436621324642,301.0
333,1436621324662,301.0
334,1436621324682,302.0
335,1436621324703,304.0
336,1436621324723,304.0
337,1436621324743,305.0
338,1436621324762,305.0
339,1436621324783,306.0
340,1436621324803,306.0
341,1436621324823,307.0
342,1436621324843,307.0
343,1436621324863,308.0
344,1436621324883,308.0
345,1436621324903,309.0
346,1436621324923,309.0
347,1436621324943,309.0
348,1436621324963,309.0
349,1436621324983,309.0
350,1436621325003,309.0
351,1436621325023,309.0
352,1436621325043,309.0
353,1436621325063,309.0
354,1436621325083,309.0
355,1436621325103,309.0
356,1436621325123,309.0
357,1436621325143,310.0
358,1436621325163,310.0
359,1436621325183,310.0
360,1436621325203,310.0
361,1436621325223,309.0
362,1436621325243,309.0
363,1436621325263,310.0
364,1436621325283,310.0
365,1436621325303,310.0
366,1436621325323,310.0
367,1436621325343,311.0
368,1436621325363,312.0
369,1436621325383,312.0
370,1436621325403,311.0
371,1436621325423,311.0
372,1436621325443,311.0
373,1436621325463,311.0
374,1436621325483,309.0
375,1436621325503,309.0
376,1436621325523,307.0
377,1436621325543,305.0
378,1436621325563,305.0
379,1436621325583,302.0
380,1436621325603,302.0
381,1436621325623,298.0
382,1436621325643,298.0
383,1436621325663,293.0
384,1436621325683,293.0
385,1436621325703,287.0
386,1436621325723,287.0
387,1436621325743,281.0
388,1436621325763,274.0
389,1436621325783,274.0
390,1436621325804,267.0
391,1436621325824,267.0
392,1436621325844,264.0
393,1436621325864,264.0
394,1436621325884,262.0
395,1436621325904,262.0
396,1436621325924,262.0
397,1436621325944,262.0
398,1436621325964,260.0
399,1436621325984,260.0
400,1436621326004,260.0
401,1436621326024,261.0
402,1436621326044,261.0
403,1436621326064,261.0
404,1436621326084,261.0
405,1436621326104,259.0
406,1436621326124,259.0
407,1436621326144,257.0
408,1436621326165,257.0
409,1436621326184,259.0
410,1436621326204,260.0
411,1436621326224,260.0
412,1436621326244,259.0
413,1436621326264,259.0
414,1436621326284,258.0
415,1436621326304,258.0
416,1436621326324,261.0
417,1436621326344,261.0
418,1436621326364,262.0
419,1436621326384,262.0
420,1436621326404,261.0
421,1436621326424,257.0
422,1436621326444,257.0
423,1436621326464,252.0
424,1436621326484,252.0
425,1436621326506,245.0
426,1436621326524,245.0
427,1436621326544,238.0
428,1436621326564,238.0
429,1436621326584,230.0
430,1436621326604,230.0
431,1436621326624,222.0
432,1436621326644,212.0
433,1436621326664,212.0
434,1436621326684,203.0
435,1436621326704,203.0
436,1436621326724,194.0
437,1436621326744,194.0
438,1436621326764,186.0
439,1436621326784,186.0
440,1436621326804,180.0
441,1436621326825,176.0
442,1436621326845,176.0
443,1436621326865,172.0
444,1436621326885,172.0
445,1436621326905,174.0
446,1436621326925,174.0
447,1436621326945,180.0
448,1436621326965,180.0
449,1436621326985,202.0
450,1436621327005,202.0
451,1436621327025,217.0
452,1436621327045,216.0
453,1436621327065,216.0
454,1436621327085,213.0
455,1436621327105,213.0
456,1436621327125,212.0
457,1436621327145,212.0
458,1436621327165,215.0
459,1436621327185,215.0
460,1436621327205,219.0
461,1436621327225,219.0
462,1436621327245,228.0
463,1436621327265,245.0
464,1436621327285,245.0
465,1436621327305,251.0
466,1436621327325,251.0
467,1436621327345,270.0
468,1436621327365,270.0
469,1436621327385,295.0
470,1436621327405,295.0
471,1436621327425,277.0
472,1436621327445,277.0
473,1436621327465,255.0
474,1436621327485,254.0
475,1436621327505,254.0
476,1436621327525,273.0
477,1436621327545,273.0
478,1436621327565,282.0
479,1436621327585,282.0
480,1436621327605,295.0
481,1436621327625,295.0
482,1436621327645,303.0
483,1436621327665,303.0
484,1436621327685,316.0
485,1436621327705,322.0
486,1436621327725,322.0
487,1436621327745,323.0
488,1436621327765,323.0
489,1436621327785,323.0
490,1436621327806,323.0
491,1436621327825,323.0
492,1436621327845,323.0
493,1436621327865,308.0
494,1436621327885,308.0
495,1436621327906,321.0
496,1436621327926,337.0
497,1436621327946,337.0
498,1436621327966,342.0
499,1436621327986,342.0
500,1436621328006,335.0
501,1436621328026,335.0
502,1436621328046,329.0
503,1436621328066,329.0
504,1436621328086,319.0
505,1436621328106,327.0
506,1436621328126,327.0
507,1436621328146,370.0
508,1436621328166,370.0
509,1436621328186,358.0
510,1436621328206,358.0
511,1436621328226,382.0
512,1436621328246,382.0
513,1436621328266,374.0
514,1436621328286,374.0
515,1436621328306,373.0
516,1436621328326,384.0
517,1436621328346,384.0
518,1436621328366,399.0
519,1436621328386,399.0
520,1436621328406,418.0
521,1436621328426,418.0
522,1436621328446,449.0
523,1436621328466,449.0
524,1436621328486,467.0
525,1436621328506,467.0
526,1436621328526,495.0
527,1436621328546,478.0
528,1436621328566,478.0
529,1436621328586,463.0
530,1436621328606,463.0
531,1436621328626,403.0
532,1436621328650,403.0
533,1436621328666,405.0
534,1436621328687,405.0
535,1436621328706,426.0
536,1436621328726,426.0
537,1436621328746,443.0
538,1436621328766,477.0
539,1436621328786,477.0
540,1436621328806,522.0
541,1436621328826,522.0
542,1436621328846,581.0
543,1436621328866,581.0
544,1436621328886,632.0
545,1436621328906,632.0
546,1436621328926,611.0
547,1436621328947,611.0
548,1436621328967,589.0
549,1436621328987,523.0
550,1436621329007,523.0
551,1436621329027,465.0
552,1436621329047,465.0
553,1436621329067,411.0
554,1436621329087,411.0
555,1436621329107,436.0
556,1436621329127,436.0
557,1436621329147,471.0
558,1436621329167,471.0
559,1436621329187,486.0
560,1436621329207,485.0
561,1436621329227,485.0
562,1436621329247,503.0
563,1436621329267,503.0
564,1436621329287,539.0
565,1436621329307,539.0
566,1436621329327,551.0
567,1436621329347,551.0
568,1436621329367,504.0
569,1436621329387,464.0
570,1436621329407,464.0
571,1436621329427,461.0
572,1436621329447,461.0
573,1436621329467,442.0
574,1436621329487,442.0
575,1436621329507,432.0
576,1436621329527,432.0
577,1436621329547,437.0
578,1436621329567,437.0
579,1436621329587,470.0
580,1436621329607,499.0
581,1436621329627,499.0
582,1436621329647,536.0
583,1436621329667,536.0
584,1436621329692,538.0
585,1436621329707,538.0
586,1436621329727,477.0
587,1436621329747,477.0
588,1436621329767,443.0
589,1436621329787,443.0
590,1436621329807,454.0
591,1436621329827,462.0
592,1436621329847,462.0
593,1436621329867,496.0
594,1436621329887,496.0
595,1436621329908,525.0
596,1436621329928,525.0
597,1436621329953,554.0
598,1436621329968,554.0
599,1436621329988,562.0
600,1436621330008,562.0
601,1436621330028,530.0
602,1436621330048,552.0
603,1436621330068,552.0
604,1436621330088,543.0
605,1436621330108,543.0
606,1436621330128,517.0
607,1436621330148,517.0
608,1436621330168,484.0
609,1436621330188,484.0
610,1436621330208,488.0
611,1436621330228,488.0
612,1436621330248,473.0
613,1436621330268,474.0
614,1436621330288,474.0
615,1436621330309,478.0
616,1436621330328,478.0
617,1436621330348,506.0
618,1436621330368,506.0
619,1436621330388,540.0
620,1436621330408,540.0
621,1436621330428,562.0
622,1436621330448,562.0
623,1436621330468,565.0
624,1436621330488,485.0
625,1436621330508,485.0
626,1436621330528,444.0
627,1436621330548,444.0
628,1436621330568,435.0
629,1436621330588,435.0
630,1436621330608,439.0
631,1436621330628,439.0
632,1436621330648,475.0
633,1436621330668,504.0
634,1436621330688,504.0
635,1436621330708,527.0
636,1436621330728,527.0
637,1436621330748,553.0
638,1436621330768,553.0
639,1436621330788,533.0
640,1436621330809,533.0
641,1436621330829,532.0
642,1436621330849,532.0
643,1436621330868,506.0
644,1436621330888,467.0
645,1436621330908,467.0
646,1436621330929,461.0
647,1436621330949,461.0
648,1436621330968,452.0
649,1436621330989,452.0
650,1436621331009,448.0
651,1436621331029,448.0
652,1436621331049,450.0
653,1436621331069,450.0
654,1436621331089,454.0
655,1436621331109,514.0
656,1436621331129,514.0
657,1436621331149,583.0
658,1436621331169,583.0
659,1436621331189,631.0
660,1436621331209,631.0
661,1436621331229,619.0
662,1436621331249,619.0
663,1436621331269,541.0
664,1436621331289,541.0
665,1436621331309,480.0
666,1436621331329,384.0
667,1436621331351,384.0
668,1436621331369,352.0
669,1436621331389,352.0
670,1436621331409,378.0
671,1436621331429,378.0
672,1436621331449,397.0
673,1436621331469,397.0
674,1436621331489,418.0
675,1436621331509,418.0
676,1436621331529,466.0
677,1436621331549,498.0
678,1436621331569,498.0
679,1436621331589,531.0
680,1436621331609,531.0
681,1436621331629,512.0
682,1436621331649,512.0
683,1436621331669,443.0
684,1436621331689,443.0
685,1436621331709,364.0
686,1436621331729,364.0
687,1436621331749,314.0
688,1436621331769,344.0
689,1436621331789,344.0
690,1436621331809,360.0
691,1436621331829,360.0
692,1436621331849,394.0
693,1436621331869,394.0
694,1436621331890,481.0
695,1436621331910,481.0
696,1436621331930,601.0
697,1436621331950,683.0
698,1436621331969,683.0
699,1436621331989,659.0
700,1436621332010,659.0
701,1436621332030,542.0
702,1436621332050,542.0
703,1436621332070,423.0
704,1436621332090,423.0
705,1436621332110,266.0
706,1436621332130,266.0
707,1436621332150,221.0
708,1436621332170,237.0
709,1436621332190,237.0
710,1436621332210,256.0
711,1436621332230,256.0
712,1436621332250,267.0
713,1436621332270,267.0
714,1436621332290,305.0
715,1436621332310,305.0
716,1436621332330,329.0
717,1436621332350,329.0
718,1436621332370,409.0
719,1436621332390,340.0
720,1436621332410,340.0
721,1436621332430,298.0
722,1436621332450,298.0
723,1436621332470,259.0
724,1436621332490,259.0
725,1436621332510,240.0
726,1436621332530,240.0
727,1436621332550,261.0
728,1436621332570,261.0
729,1436621332590,290.0
730,1436621332610,275.0
731,1436621332630,275.0
732,1436621332650,292.0
733,1436621332670,292.0
734,1436621332690,290.0
735,1436621332710,290.0
736,1436621332730,303.0
737,1436621332750,303.0
738,1436621332771,290.0
739,1436621332790,290.0
740,1436621332810,280.0
741,1436621332830,290.0
742,1436621332850,290.0
743,1436621332870,262.0
744,1436621332890,262.0
745,1436621332910,245.0
746,1436621332930,245.0
747,1436621332951,259.0
748,1436621332970,259.0
749,1436621332991,243.0
750,1436621333011,243.0
751,1436621333030,241.0
752,1436621333050,281.0
753,1436621333070,281.0
754,1436621333091,305.0
755,1436621333111,305.0
756,1436621333144,288.0
757,1436621333151,288.0
758,1436621333171,268.0
759,1436621333191,268.0
760,1436621333211,255.0
761,1436621333231,253.0
762,1436621333251,253.0
763,1436621333271,245.0
764,1436621333291,245.0
765,1436621333311,258.0
766,1436621333331,258.0
767,1436621333351,267.0
768,1436621333371,267.0
769,1436621333391,276.0
770,1436621333411,276.0
771,1436621333431,302.0
772,1436621333451,403.0
773,1436621333471,403.0
774,1436621333491,340.0
775,1436621333511,340.0
776,1436621333531,302.0
777,1436621333551,302.0
778,1436621333571,293.0
779,1436621333591,293.0
780,1436621333611,283.0
781,1436621333638,283.0
782,1436621333651,261.0
783,1436621333671,248.0
784,1436621333691,248.0
785,1436621333711,249.0
786,1436621333731,249.0
787,1436621333751,245.0
788,1436621333771,245.0
789,1436621333791,255.0
790,1436621333811,255.0
791,1436621333831,270.0
792,1436621333851,270.0
793,1436621333871,276.0
794,1436621333891,265.0
795,1436621333911,265.0
796,1436621333931,258.0
797,1436621333951,258.0
798,1436621333971,258.0
799,1436621333991,258.0
800,1436621334011,259.0
801,1436621334032,259.0
802,1436621334052,236.0
803,1436621334072,236.0
804,1436621334092,267.0
805,1436621334112,282.0
806,1436621334132,282.0
807,1436621334152,292.0
808,1436621334172,292.0
809,1436621334192,305.0
810,1436621334212,305.0
811,1436621334232,316.0
812,1436621334252,316.0
813,1436621334272,327.0
814,1436621334292,327.0
815,1436621334312,335.0
816,1436621334332,340.0
817,1436621334352,340.0
818,1436621334372,302.0
819,1436621334392,302.0
820,1436621334412,273.0
821,1436621334432,273.0
822,1436621334452,248.0
823,1436621334472,248.0
824,1436621334492,248.0
825,1436621334512,243.0
826,1436621334532,243.0
827,1436621334552,244.0
828,1436621334572,244.0
829,1436621334592,264.0
830,1436621334612,264.0
831,1436621334632,279.0
832,1436621334652,279.0
833,1436621334672,283.0
834,1436621334692,283.0
835,1436621334712,271.0
836,1436621334732,261.0
