id,attr_time,attr_light
1,1436621318018,981.0
2,1436621318040,981.0
3,1436621318061,981.0
4,1436621318080,981.0
5,1436621318099,982.0
6,1436621318118,982.0
7,1436621318138,985.0
8,1436621318158,985.0
9,1436621318180,984.0
10,1436621318200,984.0
11,1436621318220,982.0
12,1436621318238,982.0
13,1436621318258,982.0
14,1436621318331,982.0
15,1436621318332,981.0
16,1436621318333,981.0
17,1436621318344,980.0
18,1436621318360,980.0
19,1436621318390,979.0
20,1436621318396,979.0
21,1436621318416,979.0
22,1436621318436,980.0
23,1436621318457,980.0
24,1436621318476,980.0
25,1436621318496,980.0
26,1436621318516,979.0
27,1436621318537,979.0
28,1436621318557,981.0
29,1436621318577,981.0
30,1436621318597,980.0
31,1436621318616,980.0
32,1436621318636,980.0
33,1436621318657,980.0
34,1436621318677,981.0
35,1436621318697,981.0
36,1436621318717,980.0
37,1436621318737,980.0
38,1436621318756,981.0
39,1436621318779,980.0
40,1436621318800,980.0
41,1436621318820,980.0
42,1436621318839,980.0
43,1436621318860,980.0
44,1436621318880,980.0
45,1436621318899,982.0
46,1436621318922,982.0
47,1436621318940,981.0
48,1436621319048,981.0
49,1436621319082,981.0
50,1436621319083,981.0
51,1436621319084,980.0
52,1436621319085,980.0
53,1436621319086,980.0
54,1436621319087,980.0
55,1436621319116,980.0
56,1436621319117,980.0
57,1436621319136,980.0
58,1436621319156,980.0
59,1436621319176,980.0
60,1436621319197,979.0
61,1436621319216,979.0
62,1436621319236,978.0
63,1436621319256,978.0
64,1436621319276,977.0
65,1436621319296,977.0
66,1436621319316,977.0
67,1436621319336,977.0
68,1436621319356,974.0
69,1436621319376,974.0
70,1436621319396,972.0
71,1436621319416,972.0
72,1436621319436,970.0
73,1436621319456,970.0
74,1436621319476,971.0
75,1436621319497,971.0
76,1436621319520,970.0
77,1436621319539,969.0
78,1436621319561,969.0
79,1436621319583,968.0
80,1436621319601,968.0
81,1436621319623,967.0
82,1436621319637,967.0
83,1436621319681,967.0
84,1436621319689,967.0
85,1436621319697,967.0
86,1436621319719,967.0
87,1436621319737,966.0
88,1436621319757,966.0
89,1436621319777,968.0
90,1436621319810,968.0
91,1436621319825,967.0
92,1436621319840,967.0
93,1436621319857,968.0
94,1436621319877,968.0
95,1436621319897,969.0
96,1436621319917,970.0
97,1436621319938,970.0
98,1436621319957,971.0
99,1436621319977,971.0
100,1436621319997,971.0
101,1436621320017,971.0
102,1436621320039,972.0
103,1436621320059,972.0
104,1436621320080,973.0
105,1436621320100,973.0
106,1436621320120,973.0
107,1436621320137,973.0
108,1436621320159,974.0
109,1436621320177,974.0
110,1436621320199,973.0
111,1436621320217,973.0
112,1436621320241,974.0
113,1436621320261,974.0
114,1436621320280,975.0
115,1436621320299,975.0
116,1436621320323,975.0
117,1436621320352,976.0
118,1436621320358,976.0
119,1436621320381,976.0
120,1436621320400,976.0
121,1436621320419,977.0
122,1436621320441,977.0
123,1436621320460,977.0
124,1436621320478,977.0
125,1436621320501,977.0
126,1436621320521,977.0
127,1436621320541,976.0
128,1436621320564,976.0
129,1436621320580,978.0
130,1436621320602,978.0
131,1436621320622,979.0
132,1436621320642,979.0
133,1436621320662,979.0
134,1436621320682,979.0
135,1436621320702,978.0
136,1436621320719,977.0
137,1436621320742,977.0
138,1436621320759,977.0
139,1436621320780,977.0
140,1436621320798,977.0
141,1436621320824,977.0
142,1436621320844,978.0
143,1436621320865,978.0
144,1436621320882,978.0
145,1436621320898,978.0
146,1436621320920,979.0
147,1436621320941,979.0
148,1436621320962,980.0
149,1436621320979,980.0
150,1436621321039,982.0
151,1436621321050,982.0
152,1436621321051,982.0
153,1436621321060,982.0
154,1436621321079,983.0
155,1436621321100,984.0
156,1436621321119,984.0
157,1436621321144,985.0
158,1436621321161,985.0
159,1436621321180,986.0
160,1436621321201,986.0
161,1436621321220,988.0
162,1436621321243,988.0
163,1436621321262,987.0
164,1436621321282,987.0
165,1436621321302,987.0
166,1436621321322,987.0
167,1436621321342,988.0
168,1436621321362,988.0
169,1436621321382,986.0
170,1436621321402,986.0
171,1436621321420,985.0
172,1436621321441,985.0
173,1436621321460,983.0
174,1436621321482,980.0
175,1436621321501,980.0
176,1436621321520,978.0
177,1436621321539,978.0
178,1436621321565,975.0
179,1436621321585,975.0
180,1436621321605,973.0
181,1436621321623,973.0
182,1436621321641,971.0
183,1436621321662,971.0
184,1436621321681,970.0
185,1436621321702,970.0
186,1436621321724,971.0
187,1436621321791,971.0
188,1436621321792,972.0
189,1436621321793,972.0
190,1436621321800,972.0
191,1436621321820,972.0
192,1436621321842,973.0
193,1436621321859,973.0
194,1436621321880,972.0
195,1436621321902,970.0
196,1436621321921,970.0
197,1436621321943,969.0
198,1436621321960,969.0
199,1436621321983,967.0
200,1436621322000,967.0
201,1436621322023,965.0
202,1436621322043,965.0
203,1436621322064,963.0
204,1436621322083,963.0
205,1436621322103,963.0
206,1436621322123,963.0
207,1436621322143,962.0
208,1436621322165,962.0
209,1436621322180,962.0
210,1436621322203,962.0
211,1436621322221,962.0
212,1436621322240,962.0
213,1436621322260,962.0
214,1436621322285,962.0
215,1436621322306,962.0
216,1436621322326,962.0
217,1436621322343,962.0
218,1436621322361,961.0
219,1436621322381,961.0
220,1436621322401,959.0
221,1436621322423,959.0
222,1436621322440,960.0
223,1436621322494,960.0
224,1436621322496,961.0
225,1436621322511,961.0
226,1436621322521,961.0
227,1436621322545,961.0
228,1436621322562,962.0
229,1436621322582,962.0
230,1436621322602,963.0
231,1436621322621,963.0
232,1436621322643,964.0
233,1436621322661,964.0
234,1436621322684,964.0
235,1436621322703,966.0
236,1436621322724,966.0
237,1436621322744,965.0
238,1436621322764,965.0
239,1436621322784,966.0
240,1436621322804,966.0
241,1436621322824,966.0
242,1436621322843,966.0
243,1436621322864,968.0
244,1436621322883,968.0
245,1436621322904,968.0
246,1436621322924,968.0
247,1436621322941,970.0
248,1436621322963,970.0
249,1436621322983,970.0
250,1436621323005,970.0
251,1436621323025,971.0
252,1436621323045,973.0
253,1436621323064,973.0
254,1436621323081,974.0
255,1436621323103,974.0
256,1436621323123,974.0
257,1436621323143,974.0
258,1436621323164,974.0
259,1436621323216,974.0
260,1436621323217,975.0
261,1436621323232,975.0
262,1436621323241,975.0
263,1436621323266,975.0
264,1436621323282,975.0
265,1436621323302,975.0
266,1436621323323,975.0
267,1436621323342,975.0
268,1436621323362,975.0
269,1436621323382,975.0
270,1436621323404,976.0
271,1436621323421,976.0
272,1436621323444,976.0
273,1436621323464,976.0
274,1436621323484,976.0
275,1436621323504,976.0
276,1436621323524,976.0
277,1436621323544,977.0
278,1436621323564,977.0
279,1436621323584,978.0
280,1436621323603,978.0
281,1436621323625,978.0
282,1436621323645,978.0
283,1436621323665,976.0
284,1436621323685,976.0
285,1436621323705,976.0
286,1436621323724,976.0
287,1436621323762,975.0
288,1436621323763,975.0
289,1436621323785,974.0
290,1436621323805,974.0
291,1436621323823,973.0
292,1436621323842,971.0
293,1436621323862,971.0
294,1436621323931,971.0
295,1436621323932,971.0
296,1436621323933,971.0
297,1436621323951,971.0
298,1436621323962,971.0
299,1436621323985,971.0
300,1436621324003,971.0
301,1436621324022,971.0
302,1436621324043,971.0
303,1436621324063,971.0
304,1436621324086,970.0
305,1436621324105,970.0
306,1436621324123,970.0
307,1436621324143,970.0
308,1436621324165,969.0
309,1436621324185,969.0
310,1436621324205,967.0
311,1436621324225,964.0
312,1436621324245,964.0
313,1436621324265,962.0
314,1436621324285,962.0
315,1436621324305,961.0
316,1436621324326,961.0
317,1436621324342,961.0
318,1436621324365,961.0
319,1436621324382,961.0
320,1436621324402,961.0
321,1436621324422,961.0
322,1436621324447,961.0
323,1436621324467,960.0
324,1436621324488,960.0
325,1436621324505,959.0
326,1436621324522,959.0
327,1436621324542,958.0
328,1436621324562,958.0
329,1436621324583,957.0
330,1436621324609,956.0
331,1436621324660,956.0
332,1436621324673,955.0
333,1436621324674,955.0
334,1436621324724,954.0
335,1436621324725,954.0
336,1436621324726,955.0
337,1436621324746,955.0
338,1436621324770,953.0
339,1436621324782,953.0
340,1436621324811,954.0
341,1436621324834,954.0
342,1436621324947,953.0
343,1436621324948,953.0
344,1436621324949,952.0
345,1436621324950,952.0
346,1436621324951,952.0
347,1436621324952,952.0
348,1436621324964,953.0
349,1436621324983,952.0
350,1436621325003,952.0
351,1436621325023,951.0
352,1436621325043,951.0
353,1436621325063,951.0
354,1436621325083,951.0
355,1436621325103,952.0
356,1436621325123,952.0
357,1436621325143,951.0
358,1436621325163,951.0
359,1436621325183,952.0
360,1436621325204,952.0
361,1436621325223,953.0
362,1436621325243,953.0
363,1436621325263,956.0
364,1436621325283,956.0
365,1436621325303,962.0
366,1436621325323,962.0
367,1436621325342,967.0
368,1436621325362,967.0
369,1436621325384,976.0
370,1436621325402,984.0
371,1436621325422,984.0
372,1436621325442,992.0
373,1436621325462,992.0
374,1436621325482,1003.0
375,1436621325506,1003.0
376,1436621325522,1012.0
377,1436621325542,1012.0
378,1436621325562,1023.0
379,1436621325582,1023.0
380,1436621325602,1038.0
381,1436621325622,1038.0
382,1436621325642,1057.0
383,1436621325662,1057.0
384,1436621325694,1077.0
385,1436621325702,1077.0
386,1436621325722,1096.0
387,1436621325742,1096.0
388,1436621325762,1112.0
389,1436621325782,1127.0
390,1436621325802,1127.0
391,1436621325823,1146.0
392,1436621325846,1146.0
393,1436621325866,1165.0
394,1436621325886,1165.0
395,1436621325906,1183.0
396,1436621325924,1183.0
397,1436621325943,1195.0
398,1436621325964,1195.0
399,1436621326036,1199.0
400,1436621326037,1199.0
401,1436621326038,1203.0
402,1436621326043,1203.0
403,1436621326063,1216.0
404,1436621326083,1216.0
405,1436621326103,1221.0
406,1436621326125,1221.0
407,1436621326148,1213.0
408,1436621326165,1201.0
409,1436621326187,1201.0
410,1436621326207,1188.0
411,1436621326225,1188.0
412,1436621326245,1194.0
413,1436621326267,1194.0
414,1436621326287,1217.0
415,1436621326307,1217.0
416,1436621326325,1258.0
417,1436621326346,1258.0
418,1436621326367,1306.0
419,1436621326385,1306.0
420,1436621326407,1350.0
421,1436621326425,1350.0
422,1436621326445,1441.0
423,1436621326470,1441.0
424,1436621326488,1650.0
425,1436621326504,1650.0
426,1436621326524,2569.0
427,1436621326545,7236.0
428,1436621326570,25356.0
429,1436621326591,49425.0
430,1436621326605,49425.0
431,1436621326625,20985.0
432,1436621326652,20985.0
433,1436621326726,2254.0
434,1436621326727,2254.0
435,1436621326728,11473.0
436,1436621326729,11473.0
437,1436621326745,29638.0
438,1436621326769,29638.0
439,1436621326785,3412.0
440,1436621326805,3412.0
441,1436621326838,1758.0
442,1436621326846,1758.0
443,1436621326866,1402.0
444,1436621326886,1402.0
445,1436621326907,1401.0
446,1436621326926,1416.0
447,1436621326947,1416.0
448,1436621326965,1431.0
449,1436621326988,1431.0
450,1436621327006,1459.0
451,1436621327026,1459.0
452,1436621327048,1517.0
453,1436621327065,1517.0
454,1436621327088,1585.0
455,1436621327106,1585.0
456,1436621327127,1933.0
457,1436621327148,1933.0
458,1436621327166,2713.0
459,1436621327186,2713.0
460,1436621327205,2332.0
461,1436621327228,2332.0
462,1436621327251,1886.0
463,1436621327269,1886.0
464,1436621327288,11680.0
465,1436621327305,11680.0
466,1436621327326,24108.0
467,1436621327345,35659.0
468,1436621327366,35659.0
469,1436621327438,17671.0
470,1436621327439,17671.0
471,1436621327440,8420.0
472,1436621327455,8420.0
473,1436621327465,36815.0
474,1436621327490,36815.0
475,1436621327506,15343.0
476,1436621327527,15343.0
477,1436621327565,5521.0
478,1436621327566,5521.0
479,1436621327588,17893.0
480,1436621327606,17893.0
481,1436621327628,3988.0
482,1436621327646,3988.0
483,1436621327669,1832.0
484,1436621327686,1832.0
485,1436621327709,1560.0
486,1436621327729,1593.0
487,1436621327748,1593.0
488,1436621327769,1621.0
489,1436621327789,1621.0
490,1436621327807,2412.0
491,1436621327828,2412.0
492,1436621327846,3852.0
493,1436621327868,3852.0
494,1436621327886,40444.0
495,1436621327908,40444.0
496,1436621327927,42765.0
497,1436621327948,42765.0
498,1436621327966,48513.0
499,1436621327987,48513.0
500,1436621328007,55747.0
501,1436621328026,55747.0
502,1436621328047,41326.0
503,1436621328066,0.0
504,1436621328087,24437.0
505,1436621328111,24437.0
506,1436621328187,58753.0
507,1436621328188,58753.0
508,1436621328189,33918.0
509,1436621328190,33918.0
510,1436621328208,58753.0
511,1436621328230,58753.0
512,1436621328247,58753.0
513,1436621328273,0.0
514,1436621328286,58753.0
515,1436621328310,58753.0
516,1436621328333,58753.0
517,1436621328347,58753.0
518,1436621328373,54855.0
519,1436621328390,54855.0
520,1436621328410,9500.0
521,1436621328427,9500.0
522,1436621328449,2307.0
523,1436621328470,2307.0
524,1436621328490,2257.0
525,1436621328509,2257.0
526,1436621328530,2422.0
527,1436621328552,2422.0
528,1436621328567,3517.0
529,1436621328590,3517.0
530,1436621328611,14009.0
531,1436621328629,14009.0
532,1436621328649,58753.0
533,1436621328670,58753.0
534,1436621328690,58753.0
535,1436621328710,58753.0
536,1436621328730,58753.0
537,1436621328749,58753.0
538,1436621328771,58753.0
539,1436621328790,0.0
540,1436621328811,58753.0
541,1436621328834,58753.0
542,1436621328947,58753.0
543,1436621328955,58753.0
544,1436621328956,58753.0
545,1436621328957,58753.0
546,1436621328958,58753.0
547,1436621328959,58753.0
548,1436621328971,58753.0
549,1436621328991,0.0
550,1436621329006,58753.0
551,1436621329037,58753.0
552,1436621329046,58753.0
553,1436621329066,58753.0
554,1436621329090,58753.0
555,1436621329108,58753.0
556,1436621329127,58753.0
557,1436621329146,58753.0
558,1436621329171,34748.0
559,1436621329190,0.0
560,1436621329210,2176.0
561,1436621329231,2176.0
562,1436621329250,1861.0
563,1436621329270,1861.0
564,1436621329291,1909.0
565,1436621329308,1909.0
566,1436621329330,2240.0
567,1436621329351,2240.0
568,1436621329367,5131.0
569,1436621329387,5131.0
570,1436621329407,24240.0
571,1436621329431,24240.0
572,1436621329453,58753.0
573,1436621329472,58753.0
574,1436621329490,58753.0
575,1436621329507,58753.0
576,1436621329527,58753.0
577,1436621329547,58753.0
578,1436621329571,58753.0
579,1436621329587,0.0
580,1436621329660,58753.0
581,1436621329661,58753.0
582,1436621329662,58753.0
583,1436621329673,58753.0
584,1436621329690,58753.0
585,1436621329711,58753.0
586,1436621329727,58753.0
587,1436621329747,58753.0
588,1436621329777,58753.0
589,1436621329789,0.0
590,1436621329808,58753.0
591,1436621329829,58753.0
592,1436621329849,58753.0
593,1436621329867,58753.0
594,1436621329887,58753.0
595,1436621329908,58753.0
596,1436621329927,46868.0
597,1436621329949,46868.0
598,1436621329972,2095.0
599,1436621329990,2095.0
600,1436621330010,1485.0
601,1436621330031,1485.0
602,1436621330050,1320.0
603,1436621330071,1320.0
604,1436621330091,1611.0
605,1436621330112,1611.0
606,1436621330130,1926.0
607,1436621330151,1926.0
608,1436621330171,2555.0
609,1436621330190,16481.0
610,1436621330211,16481.0
611,1436621330231,46733.0
612,1436621330251,46733.0
613,1436621330270,58753.0
614,1436621330290,58753.0
615,1436621330318,58753.0
616,1436621330374,58753.0
617,1436621330375,58753.0
618,1436621330376,58753.0
619,1436621330414,0.0
620,1436621330415,58753.0
621,1436621330428,58753.0
622,1436621330458,58753.0
623,1436621330468,58753.0
624,1436621330499,58753.0
625,1436621330508,58753.0
626,1436621330528,58753.0
627,1436621330548,58753.0
628,1436621330569,58753.0
629,1436621330588,0.0
630,1436621330612,58753.0
631,1436621330631,58753.0
632,1436621330651,58753.0
633,1436621330671,58753.0
634,1436621330691,58753.0
635,1436621330711,58753.0
636,1436621330731,8083.0
637,1436621330751,8083.0
638,1436621330770,2327.0
639,1436621330789,2327.0
640,1436621330812,2319.0
641,1436621330828,2319.0
642,1436621330850,2443.0
643,1436621330870,2443.0
644,1436621330895,6548.0
645,1436621330911,6548.0
646,1436621330935,38736.0
647,1436621330957,38736.0
648,1436621330970,58753.0
649,1436621330989,58753.0
650,1436621331011,58753.0
651,1436621331029,58753.0
652,1436621331115,58753.0
653,1436621331116,58753.0
654,1436621331117,58753.0
655,1436621331118,0.0
656,1436621331154,58753.0
657,1436621331155,58753.0
658,1436621331176,58753.0
659,1436621331193,58753.0
660,1436621331219,58753.0
661,1436621331229,58753.0
662,1436621331250,58753.0
663,1436621331277,58753.0
664,1436621331304,58753.0
665,1436621331311,0.0
666,1436621331332,58753.0
667,1436621331348,58753.0
668,1436621331368,58753.0
669,1436621331390,58753.0
670,1436621331410,58753.0
671,1436621331429,58753.0
672,1436621331450,15394.0
673,1436621331471,15394.0
674,1436621331491,4277.0
675,1436621331512,4277.0
676,1436621331532,1304.0
677,1436621331550,1304.0
678,1436621331570,1050.0
679,1436621331589,1050.0
680,1436621331612,1096.0
681,1436621331631,1096.0
682,1436621331652,1111.0
683,1436621331668,1111.0
684,1436621331689,1155.0
685,1436621331709,1237.0
686,1436621331734,1237.0
687,1436621331750,4180.0
688,1436621331774,4180.0
689,1436621331791,11950.0
690,1436621331812,11950.0
691,1436621331847,1390.0
692,1436621331850,1390.0
693,1436621331870,1359.0
694,1436621331889,1359.0
695,1436621331910,1466.0
696,1436621331929,1466.0
697,1436621331952,1567.0
698,1436621331970,1567.0
699,1436621331992,1699.0
700,1436621332010,1699.0
701,1436621332033,1816.0
702,1436621332053,1816.0
703,1436621332070,2121.0
704,1436621332093,4749.0
705,1436621332113,4749.0
706,1436621332133,7642.0
707,1436621332153,7642.0
708,1436621332173,1719.0
709,1436621332193,1719.0
710,1436621332213,11644.0
711,1436621332233,11644.0
712,1436621332254,3021.0
713,1436621332270,3021.0
714,1436621332293,1048.0
715,1436621332313,1048.0
716,1436621332333,1386.0
717,1436621332353,1386.0
718,1436621332373,1337.0
719,1436621332393,1337.0
720,1436621332413,2007.0
721,1436621332432,2007.0
722,1436621332454,2093.0
723,1436621332474,3269.0
724,1436621332494,6306.0
725,1436621332514,13755.0
726,1436621332537,13755.0
727,1436621332604,2329.0
728,1436621332605,2329.0
729,1436621332606,2460.0
730,1436621332614,2460.0
731,1436621332634,1777.0
732,1436621332651,1777.0
733,1436621332670,1520.0
734,1436621332693,1520.0
735,1436621332710,2050.0
736,1436621332731,2050.0
737,1436621332751,1616.0
738,1436621332771,1616.0
739,1436621332792,1523.0
740,1436621332813,1523.0
741,1436621332833,1592.0
742,1436621332854,1592.0
743,1436621332873,1561.0
744,1436621332894,1559.0
745,1436621332914,1559.0
746,1436621332934,1518.0
747,1436621332954,1518.0
748,1436621332974,1350.0
749,1436621332992,1350.0
750,1436621333014,1155.0
751,1436621333034,1155.0
752,1436621333054,1144.0
753,1436621333074,1144.0
754,1436621333094,1232.0
755,1436621333113,1232.0
756,1436621333133,1286.0
757,1436621333155,1286.0
758,1436621333174,1410.0
759,1436621333194,1410.0
760,1436621333213,1363.0
761,1436621333231,1363.0
762,1436621333263,1375.0
763,1436621333318,1395.0
764,1436621333319,1395.0
765,1436621333320,1426.0
766,1436621333340,1426.0
767,1436621333351,1476.0
768,1436621333380,1476.0
769,1436621333392,2295.0
770,1436621333413,2295.0
771,1436621333433,11223.0
772,1436621333451,11223.0
773,1436621333474,4946.0
774,1436621333494,4946.0
775,1436621333512,1759.0
776,1436621333531,1759.0
777,1436621333554,7031.0
778,1436621333574,7031.0
779,1436621333594,3951.0
780,1436621333614,3951.0
781,1436621333634,2088.0
782,1436621333654,1631.0
783,1436621333676,1631.0
784,1436621333695,1610.0
785,1436621333716,1610.0
786,1436621333732,1654.0
787,1436621333754,1654.0
788,1436621333774,8210.0
789,1436621333794,8210.0
790,1436621333815,1512.0
791,1436621333835,1512.0
792,1436621333854,1566.0
793,1436621333875,1566.0
794,1436621333895,1575.0
795,1436621333914,1575.0
796,1436621333935,1623.0
797,1436621333955,1623.0
798,1436621333974,1660.0
799,1436621334000,1660.0
800,1436621334056,1674.0
801,1436621334057,1667.0
802,1436621334058,1667.0
803,1436621334081,1661.0
804,1436621334092,1661.0
805,1436621334119,1631.0
806,1436621334132,1631.0
807,1436621334152,1630.0
808,1436621334186,1630.0
809,1436621334193,1621.0
810,1436621334214,1621.0
811,1436621334233,1639.0
812,1436621334253,1639.0
813,1436621334273,1681.0
