id,attr_time,attr_db
1,1436622551702,15.3993162737102
2,1436622552424,40.1052141906642
3,1436622553146,42.9037932627315
4,1436622553863,58.290359999489
5,1436622554592,53.3126424492696
6,1436622555352,42.8067365927965
7,1436622556126,13.859707513952
8,1436622556864,39.4530387156997
9,1436622557577,31.242340672914
10,1436622558277,41.1768676820321
11,1436622558978,25.7844948464772
12,1436622559712,26.8637480293623
13,1436622560455,36.8459813712953
14,1436622561231,44.1731723520771
15,1436622561972,41.8451525326005
16,1436622562712,38.361425164481
17,1436622563372,24.8701347105418
18,1436622564060,49.6340432507875
19,1436622564771,28.0285018270955
20,1436622565546,40.6448470265024
21,1436622566284,41.8253930032343
22,1436622567004,55.6883732246541
23,1436622567695,16.5068014447135
24,1436622568342,40.0131805618895
25,1436622569049,35.8730727945283
26,1436622569769,20.0624312995796
27,1436622570427,48.1972025484088
28,1436622571245,27.9975622047319
29,1436622571911,15.2063006854524
30,1436622572627,34.8031294235265
31,1436622573368,47.6238453293703
32,1436622574169,41.2582878906579
33,1436622574893,39.7566698489863
34,1436622575622,52.97756668967
35,1436622576336,44.6461577935599
36,1436622577071,45.3583178360976
37,1436622577796,11.8233748334958
38,1436622578495,32.996030007927
39,1436622579108,44.8594940211648
40,1436622579756,44.2414167232066
41,1436622580470,24.4223445543643
42,1436622581199,42.7770506148165
43,1436622581933,42.0828606958017
44,1436622582710,42.857932772233
45,1436622583435,40.9847887477801
46,1436622584159,42.1699288640746
47,1436622584882,46.7662507249788
48,1436622585603,47.0568036629928
49,1436622586387,37.9987724144198
50,1436622587134,44.2246750824192
51,1436622587864,27.8966704518255
52,1436622588565,31.4982986968001
53,1436622589243,32.8586136120867
54,1436622589975,35.0536120987767
55,1436622590706,40.0840112519463
56,1436622591466,35.8752312639759
57,1436622592179,41.2296088849288
58,1436622592929,45.1316371053552
59,1436622593785,44.6746123924678
60,1436622594526,45.9218548364193
61,1436622595250,44.2474753305951
62,1436622595994,35.4904879324422
63,1436622596723,34.2621176334939
64,1436622597454,26.7257321023176
65,1436622598191,36.167401359067
66,1436622598854,30.2701361991247
67,1436622599427,34.7992875297887
68,1436622600112,32.022799087188
69,1436622600850,47.5893361836147
70,1436622601623,37.9441883493908
71,1436622602361,26.435357567852
72,1436622603078,33.3800123279159
73,1436622603875,49.5155488564899
74,1436622604615,44.0319174494599
75,1436622605341,30.3093506368778
76,1436622606073,32.4978685446123
77,1436622606810,35.766960690658
78,1436622607542,35.6055542520148
79,1436622608274,34.1784075908295
80,1436622608971,53.3597932951844
81,1436622609638,32.1153165324
82,1436622610378,51.3024227624551
83,1436622611094,59.7391242915986
84,1436622611847,42.0470575898274
85,1436622612585,43.7269720283059
86,1436622613288,45.6212344678456
87,1436622614004,45.0488583627452
88,1436622614738,41.2447719566257
89,1436622615481,52.3991876271022
90,1436622616211,34.3464198793456
91,1436622616952,35.9539477466334
92,1436622617691,37.5445940739133
93,1436622618424,12.5793817698657
94,1436622619180,13.2401417824303
95,1436622619764,13.7347939905027
96,1436622620415,12.2704585601518
97,1436622621117,19.3858101105473
98,1436622621837,36.9005048774657
99,1436622622629,22.6445931160363
100,1436622623320,33.9868191681173
101,1436622623957,18.9799267573596
102,1436622624640,19.0568860842792
103,1436622625361,28.4837556689861
104,1436622626092,20.8673127351413
105,1436622626811,45.0227484813619
106,1436622627546,34.573313535467
107,1436622628283,44.6828621400476
108,1436622629014,29.2170035560674
109,1436622629743,33.9607116879928
110,1436622630400,14.6519438348541
111,1436622631128,16.7052355457715
112,1436622631860,25.4182631032054
113,1436622632588,42.0464915927297
114,1436622633325,10.2212752986512
115,1436622634031,41.4298989305339
116,1436622634783,10.1250109791988
117,1436622635559,9.12706758726443
118,1436622636262,10.0904995399259
119,1436622636975,47.9080640136415
120,1436622637731,45.496441730623
121,1436622638463,24.5054963660584
122,1436622639217,35.22886627923
123,1436622639925,15.4299385128813
124,1436622640524,10.8854600588268
125,1436622641200,22.8844375066476
126,1436622641936,48.1554546482972
127,1436622642671,44.6271465657733
128,1436622643393,56.0642217264274
129,1436622644111,24.3286406336213
130,1436622644854,34.4446835305486
131,1436622645634,32.9223417884608
132,1436622646340,24.5693627026583
133,1436622647061,26.2223424666891
134,1436622647779,22.8345980705208
135,1436622648522,38.2191885125762
136,1436622649305,28.8778183120375
137,1436622649985,40.8084456990251
138,1436622650638,43.69720597713
139,1436622651358,43.2666947358821
140,1436622652077,42.9409813073766
141,1436622652789,38.2580481541087
142,1436622653498,49.3386329777625
143,1436622654142,7.65496550322558
144,1436622654824,36.7260953935835
145,1436622655557,36.3753915844554
146,1436622656290,15.6539917269709
147,1436622657019,19.1971940320417
148,1436622657763,18.1142477245971
149,1436622658487,11.0248508559526
150,1436622659221,9.5430607470656
151,1436622659963,19.5287364876555
152,1436622660649,48.8262503254346
153,1436622661344,18.5960752789248
154,1436622662039,15.6047455280946
155,1436622662767,10.3252533415942
156,1436622663471,8.2049735055304
157,1436622664178,33.3045865805449
158,1436622664898,43.3979332101666
159,1436622665649,6.40545390391809
160,1436622666314,52.0516152384145
161,1436622667040,42.9911560216036
162,1436622667770,42.0179281034152
163,1436622668504,67.4688207448132
164,1436622669233,18.0459176111397
165,1436622669955,64.4691902710746
166,1436622670686,48.605393533712
167,1436622671341,66.2401565156462
168,1436622672067,36.888898027944
169,1436622672788,49.5683271538831
170,1436622673521,57.7445528634127
171,1436622674252,28.5197402406782
172,1436622674989,48.0881614373686
173,1436622675726,32.2314626558059
174,1436622676425,40.8638332892601
175,1436622677150,42.0210141911555
176,1436622677886,19.312429039978
177,1436622678611,37.3143620220772
178,1436622679341,40.3647416303326
179,1436622680087,35.473391577999
180,1436622680887,37.8398643871164
181,1436622681555,46.8023006044543
182,1436622682270,14.4901967185654
183,1436622682995,10.1871348434111
184,1436622683722,38.7689823625965
185,1436622684427,20.3874893412428
186,1436622685099,8.5256455254845
187,1436622685854,56.2772970442949
188,1436622686570,56.1248022477831
189,1436622687236,45.6252103864423
190,1436622687955,41.5930774091635
191,1436622688702,42.7129078065199
192,1436622689439,36.0331291215818
193,1436622690185,42.2442674548207
194,1436622690955,10.7258170964791
195,1436622691596,30.7116997799022
196,1436622692307,7.43507909365202
197,1436622693048,48.9784848293594
198,1436622693780,39.507281673532
199,1436622694475,27.4548187647228
200,1436622695181,46.1646592922289
201,1436622695783,13.8109144781201
202,1436622696420,49.6515596907991
203,1436622697113,41.5928036310076
204,1436622697828,11.8001497270243
205,1436622698568,39.3520554190937
206,1436622699294,15.9654026769153
207,1436622700023,39.2202942117988
208,1436622700724,37.7329644481231
209,1436622701430,5.7616889445461
210,1436622702075,52.8772907493131
211,1436622702747,44.3992411332738
212,1436622704879,42.6457891584706
213,1436622705610,33.2016405405506
214,1436622706272,22.3243866281531
215,1436622707005,30.286962325601
216,1436622707733,45.76839488649
217,1436622708476,48.0235594130751
218,1436622709200,6.79889819108328
219,1436622709959,52.7114341732707
220,1436622710682,48.870488656988
221,1436622711313,41.5879900537042
222,1436622711987,3.62663764097985
223,1436622712678,46.7365611991021
224,1436622713381,46.0960457991926
225,1436622715341,34.5140226703959
226,1436622716084,21.8402784614642
227,1436622716823,3.52003740310909
228,1436622717544,45.0584782686262
229,1436622718280,50.6923078192752
230,1436622719010,44.6100405245539
231,1436622719731,48.0829180475937
232,1436622720453,61.4879917646211
233,1436622721234,40.2401795895844
234,1436622721943,46.6974986619399
235,1436622722528,41.1352635317515
236,1436622723213,39.1609245712728
237,1436622723952,39.6656247739595
238,1436622724709,53.2305391858231
239,1436622725435,48.1316652528377
240,1436622726201,44.4275424898852
241,1436622726950,33.9812637246348
242,1436622727688,16.3228949497245
243,1436622728396,44.4368093149636
244,1436622730227,39.6445026759142
245,1436622730962,16.3777598113564
246,1436622731672,37.8527697719489
247,1436622732382,36.3644172145654
248,1436622733058,36.8716895823361
249,1436622733787,35.0369491938555
250,1436622734513,39.3943961644899
251,1436622735247,46.1216868655867
252,1436622735994,47.2504690497715
253,1436622736761,43.9853062705098
254,1436622737421,38.2344393355835
255,1436622738877,46.7995748039586
256,1436622739599,36.7915454700302
257,1436622740322,6.2761708170223
258,1436622741061,8.021814916987
259,1436622741787,16.2122650082318
260,1436622742540,14.2079292144867
261,1436622743187,7.0331459042927
262,1436622743886,33.0974159067425
263,1436622744636,16.0545501337031
264,1436622745377,36.666740698227
265,1436622746071,36.3130120524039
266,1436622746741,13.5770613169003
267,1436622747450,47.3642066440488
268,1436622748168,8.04012685653893
269,1436622748917,32.4238820592048
270,1436622749643,27.4108574113686
271,1436622750306,47.7200882679118
272,1436622751021,53.0693733292087
273,1436622751738,13.8486469103946
274,1436622752426,29.0152583323078
275,1436622753097,70.9355443601876
276,1436622753807,60.0326679102058
277,1436622754549,39.2128003692176
278,1436622755264,65.6235524882654
279,1436622755970,60.1260718627821
280,1436622756716,68.8330091388567
281,1436622757419,36.7236998551477
282,1436622758088,44.2840873559567
283,1436622758811,39.8092415442382
284,1436622759575,39.3113023711775
285,1436622760307,31.7104962562022
286,1436622761045,18.8489337132321
287,1436622761786,42.8651758120702
288,1436622762504,57.5406289638361
289,1436622763185,57.0880647401998
290,1436622763847,42.3268715322573
291,1436622764614,47.1547307499785
292,1436622765344,49.6487832372396
293,1436622766037,62.1702205613117
294,1436622766686,42.7308874879136
295,1436622767375,62.477818442354
296,1436622768088,46.4455508739034
297,1436622768849,59.2011609236974
298,1436622769560,41.4883368782733
299,1436622770277,28.815347781748
300,1436622771008,21.9822068460062
301,1436622771760,50.4612098872752
302,1436622772515,49.1644017680954
303,1436622773210,44.2138661445489
304,1436622773885,28.6929676990199
305,1436622774633,43.7071084108304
306,1436622775359,52.1706531389961
307,1436622776080,12.0450904124736
308,1436622776821,21.3089478818061
309,1436622777560,43.3736289312811
310,1436622778278,45.9121304576586
311,1436622778924,30.6425052953552
312,1436622779625,39.7053616140087
313,1436622780344,14.1539507413681
314,1436622781073,40.664823620411
315,1436622781803,17.5634808481413
316,1436622782528,18.161295905055
317,1436622783201,52.262616462583
318,1436622783894,37.4138717211119
319,1436622784641,22.1296888284183
320,1436622785356,9.69415416565971
321,1436622786064,13.3183149361867
322,1436622786775,42.4978755151672
323,1436622787491,32.6682244551328
324,1436622788176,46.8103713331118
325,1436622788777,9.10135226869155
326,1436622789469,30.8484972260727
327,1436622790199,43.0696776206153
328,1436622790967,47.3283251738593
329,1436622791693,50.9571339994474
330,1436622792397,46.6875925367428
331,1436622793146,46.8762403804059
332,1436622793799,39.10947754141
333,1436622794493,33.247651420423
334,1436622795204,36.9101031863508
335,1436622795866,50.8235649178407
336,1436622796557,5.43358592625568
337,1436622797263,6.61301636985935
338,1436622797897,31.9765032135745
339,1436622798546,56.2910106564663
340,1436622799242,64.5297314385628
341,1436622799965,49.6574529336141
342,1436622800741,45.9318484613219
343,1436622801467,45.1056324506849
344,1436622802204,58.6059461504874
345,1436622802888,58.3185323886847
346,1436622803541,65.6081131486722
347,1436622804217,38.4110738751284
348,1436622804941,49.5015636613514
349,1436622805665,64.5201711183022
350,1436622806381,56.8488012296046
351,1436622807094,49.662049732805
352,1436622807894,62.9119928839495
353,1436622808634,54.617046631434
354,1436622809369,19.6044150976393
355,1436622810095,63.7130640531321
356,1436622810876,53.9112292729272
357,1436622811619,58.2566530271606
358,1436622812355,58.1280999052823
359,1436622813103,62.4048879526277
360,1436622813840,65.4058255665365
361,1436622814559,53.6597468019228
362,1436622815291,57.9725023730429
363,1436622816110,32.0979162677294
364,1436622816844,42.6392263806691
365,1436622817605,34.0047676295658
366,1436622818324,38.8332245176238
367,1436622819027,29.4606420796217
368,1436622819763,41.0378981130844
369,1436622820475,13.7783794860091
370,1436622821204,39.2178982379742
371,1436622821928,28.4461156925124
372,1436622822660,34.3447191702107
373,1436622823368,33.8919703814147
374,1436622824119,30.844421573064
375,1436622824851,17.1266092070805
376,1436622825573,34.3147052951302
377,1436622826223,40.3353592813456
378,1436622826916,39.8076362892654
379,1436622827592,22.6957935387646
380,1436622828309,37.517991189918
381,1436622829031,29.3673484510192
382,1436622829753,40.0973795308457
383,1436622830473,14.4662848127494
384,1436622831243,22.3862173580174
385,1436622831972,14.3233058017994
386,1436622832711,12.2223198792606
387,1436622833387,8.99075658368986
388,1436622834157,44.1099051017967
389,1436622834884,44.9726510147316
390,1436622835584,39.748271402655
391,1436622836303,52.559353717016
392,1436622837014,41.8232446348509
393,1436622837726,40.1244551654009
394,1436622838457,34.6964299534013
395,1436622839227,55.2087391345948
396,1436622839962,40.5304684991585
397,1436622840715,21.0750876411066
398,1436622841442,12.5154108811327
399,1436622842163,55.7357292567364
400,1436622842898,46.8060858635756
401,1436622843550,8.29153422916538
402,1436622844237,43.257373762194
403,1436622844952,39.5982471609043
404,1436622845627,36.4789431448595
405,1436622846420,46.155214439057
406,1436622847160,44.9288706478618
407,1436622847891,55.5187032022866
408,1436622848650,42.3439064894288
409,1436622849394,46.373077140968
410,1436622850095,18.4670560996821
411,1436622850836,51.4716485919539
412,1436622851514,36.3766098787651
413,1436622852255,8.71052603356859
414,1436622852964,57.0305651389896
415,1436622853718,38.3282322075022
416,1436622854445,7.33430568058792
417,1436622855166,40.1761652130774
418,1436622855854,34.1776712801984
419,1436622856535,45.3135186089061
420,1436622857260,44.5558920903246
421,1436622857993,37.6457505898588
422,1436622858762,43.4319436449434
423,1436622859498,39.7621129766613
424,1436622860222,30.2074736612282
425,1436622860972,24.4983510470854
426,1436622861759,36.958187275945
427,1436622862485,50.4024794704744
428,1436622863240,41.6785105271322
429,1436622863913,9.7082934513546
430,1436622864637,37.2902849104412
431,1436622865378,7.24424568297987
432,1436622866075,20.6253355857865
433,1436622866721,26.0668815811062
434,1436622867436,47.8461790446685
435,1436622868156,38.5157757849608
436,1436622868876,11.2274338371746
437,1436622869612,47.6649476035351
438,1436622870323,43.7904020187035
439,1436622871011,16.3928777206867
440,1436622871733,12.3518214911633
441,1436622872455,40.1487869952627
442,1436622873180,23.4000756484329
443,1436622873920,29.825649739493
444,1436622874632,4.5721058560957
445,1436622875365,40.5579665829838
446,1436622876082,53.7442625204298
447,1436622876684,55.8404148181449
448,1436622877351,29.9627991928641
449,1436622878060,43.0874327066732
450,1436622878766,38.8315963008525
451,1436622879502,27.2252567022621
452,1436622880231,42.5424269567231
453,1436622880965,51.5170774703895
454,1436622881750,64.8491086007708
455,1436622882477,62.0014743225533
456,1436622883212,58.8883394471611
457,1436622883886,64.659272762229
458,1436622884540,61.7563018814112
459,1436622885248,45.5712212095106
460,1436622885978,37.6581370004025
461,1436622886691,56.9661872789277
462,1436622887385,5.76918592130855
463,1436622888096,53.510672290904
464,1436622888817,37.3521593763166
465,1436622889572,35.2090081933611
466,1436622890296,41.3223085280132
467,1436622891041,28.833947886844
468,1436622891757,31.9284088205475
469,1436622892357,42.4868812847458
470,1436622893092,34.5731324874944
471,1436622893812,43.0105412803829
472,1436622894528,16.2426873840424
473,1436622895257,35.6043398838174
474,1436622895995,57.0703022380997
475,1436622896750,47.4048584881141
476,1436622897429,53.157958112819
477,1436622898158,60.6541846075115
478,1436622898855,58.2307297289931
479,1436622899612,58.9282742565507
480,1436622900319,58.6401340646039
481,1436622901025,53.7745607967949
482,1436622901742,61.6544189000163
483,1436622902437,32.7213457873344
484,1436622903116,43.3315434570644
485,1436622903870,23.986555443229
486,1436622904477,59.8263239322211
487,1436622905164,58.3339274816783
488,1436622905924,58.5486706938675
489,1436622906644,58.9002406948197
490,1436622907333,56.7671699634547
491,1436622908675,63.2059028946637
492,1436622909410,55.9606216714221
493,1436622910120,57.3171657482845
494,1436622910853,46.9904266333461
495,1436622911590,24.1904067199788
496,1436622912298,56.7486778982288
497,1436622912935,61.3585923934964
498,1436622913551,62.1883768153053
499,1436622914300,56.5612417947757
500,1436622915033,54.8572094010708
501,1436622915803,33.7599498932058
502,1436622916548,17.5547326552035
503,1436622917278,52.5816105100497
504,1436622918013,17.6871262933468
505,1436622918772,27.5387535053433
506,1436622919511,18.002283384268
507,1436622920211,46.0611912678232
508,1436622920940,41.6645995761825
509,1436622921592,46.4686951117486
510,1436622923478,17.6954152198406
511,1436622924204,41.4924707097677
512,1436622924883,46.1250207533582
513,1436622925611,38.5933210464081
514,1436622926341,18.0352520192236
515,1436622927053,46.5149890027964
516,1436622927730,31.1646648256384
517,1436622928401,39.463334371632
518,1436622929137,49.268529996706
519,1436622929874,17.2222065485084
520,1436622930631,43.8144718899634
521,1436622931300,46.8793988817701
522,1436622932036,40.4412802580878
523,1436622932754,47.961411306633
524,1436622933450,19.4470908009896
525,1436622934175,31.4427451547264
526,1436622934879,39.9627882041577
527,1436622935579,41.3901344621422
528,1436622936318,30.3090686130122
529,1436622937068,61.1237132495693
530,1436622937746,44.6720834691754
531,1436622938498,54.2917129667803
532,1436622939211,63.5547466925803
533,1436622939947,52.1527771501628
534,1436622940689,50.5644775281268
535,1436622941412,36.2759430572053
536,1436622942147,44.2756897154907
537,1436622942858,44.7661951304056
538,1436622943627,34.5851682145471
539,1436622944343,33.3072208970836
540,1436622946255,23.8473292015608
541,1436622946896,22.0888029402901
542,1436622947598,44.1251631715287
543,1436622948316,60.3571692409573
544,1436622949051,52.7859423636318
545,1436622949754,24.6651126899467
546,1436622950442,54.782948745655
547,1436622951115,40.1542683361847
548,1436622951817,35.7367204871082
549,1436622952518,46.4551928283688
550,1436622953259,58.1306388968649
551,1436622953966,54.0929845945044
552,1436622954698,35.4003002731973
553,1436622955455,41.6564607107061
554,1436622956148,45.8695519364583
555,1436622956873,38.6971592497858
556,1436622957544,47.3444062500187
557,1436622959324,50.5596156616701
558,1436622960040,55.3934296052983
559,1436622960749,61.4914096069798
560,1436622961471,53.2686047673364
561,1436622962210,49.1876601438719
562,1436622962942,59.7348365320545
563,1436622963679,40.3036160851054
564,1436622964362,34.850467309162
565,1436622964978,34.0328645450044
566,1436622965709,44.8839285631122
567,1436622966412,20.5634884864414
568,1436622967144,43.9878328812656
569,1436622967852,43.7212511530544
570,1436622968580,40.5942278536962
571,1436622969317,58.1551151636952
572,1436622970043,15.8123429479852
573,1436622970783,50.2506351124616
574,1436622971490,51.6022221410134
575,1436622972214,36.3608024105531
