id,attr_time,attr_db
1,1436622551309,41.7603439753219
2,1436622552040,40.1173695976325
3,1436622552725,29.340009769607
4,1436622553384,40.6060128085405
5,1436622554064,59.6428137396772
6,1436622554783,50.277445549649
7,1436622555489,55.628492682237
8,1436622556248,47.587612795365
9,1436622557017,41.3461421495113
10,1436622557642,29.3391482224395
11,1436622558335,29.0793904627105
12,1436622559086,27.0506388181846
13,1436622559837,41.0130613768558
14,1436622560533,31.5271827717545
15,1436622561190,37.4063489729773
16,1436622561856,25.7564244670339
17,1436622562511,34.955422707367
18,1436622563183,47.6291384606572
19,1436622563858,30.9692445180298
20,1436622564592,40.2797993477127
21,1436622565365,29.5317678335954
22,1436622566053,8.75528956073366
23,1436622566724,6.16733951636416
24,1436622567567,40.1933857082565
25,1436622568336,30.3194404407861
26,1436622569083,14.0883532867407
27,1436622569816,10.4824614213587
28,1436622570565,2.29855243021347
29,1436622571260,0.447648278101341
30,1436622571992,6.76398578053584
31,1436622572755,1.27550198126584
32,1436622573463,12.5531386725084
33,1436622574248,27.6569070275575
34,1436622574966,24.4209056294278
35,1436622575584,23.6936297435355
36,1436622576300,34.6181663648522
37,1436622577026,7.23530521858228
38,1436622577654,22.7552231301272
39,1436622578385,6.15309064441021
40,1436622579134,6.99633401703986
41,1436622579866,22.4561035969317
42,1436622580611,16.6990412631707
43,1436622581359,26.1622329944348
44,1436622582093,16.6795289466595
45,1436622582774,5.22111314377823
46,1436622583522,13.2164687470867
47,1436622584289,0.657970651804447
48,1436622585028,20.38563758385
49,1436622585753,22.8542611300682
50,1436622586490,22.0432749628556
51,1436622587272,21.9981963721531
52,1436622588014,0.657970651804447
53,1436622588755,31.9437820349887
54,1436622589495,0.126262054178071
55,1436622590286,8.76909993232565
56,1436622591009,20.4541509675692
57,1436622591751,2.58374555240875
58,1436622592500,15.0780404049706
59,1436622593245,36.2169000211444
60,1436622593942,0.685632744095496
61,1436622594671,15.0662830503766
62,1436622595410,4.1665349301315
63,1436622596141,3.32027891152831
64,1436622596916,38.3488088685375
65,1436622597714,16.6664269144262
66,1436622598362,8.97707022326538
67,1436622599062,13.2986875124539
68,1436622599782,13.4587677181414
69,1436622600537,8.76388522699405
70,1436622601336,9.478561192698
71,1436622602048,12.9343759988836
72,1436622602756,5.6212514876719
73,1436622603467,0.447648278101341
74,1436622604135,14.7409074731296
75,1436622604834,4.38514557768081
76,1436622605594,4.53514378917654
77,1436622606355,9.65160854636953
78,1436622607147,9.98402933242185
79,1436622607879,4.98679199869543
80,1436622608620,6.36585930866033
81,1436622609417,37.6706365440392
82,1436622610191,13.0658062557566
83,1436622610916,19.6011008965958
84,1436622611649,43.8212588150257
85,1436622612424,19.0701340986241
86,1436622613187,15.9718258038579
87,1436622613835,17.9978899430989
88,1436622614531,41.4720423208421
89,1436622615294,28.4049721058031
90,1436622616034,23.127349482783
91,1436622616768,16.3871343427365
92,1436622617498,19.4538331180156
93,1436622618258,20.3150367001211
94,1436622618953,28.1835454952236
95,1436622619688,1.49540966729511
96,1436622620413,5.98159663057537
97,1436622621829,2.74408032443651
98,1436622622583,0.657970651804447
99,1436622623344,3.857395908855
100,1436622624076,5.21600529909233
101,1436622624766,4.11304515175743
102,1436622625447,2.10335568443034
103,1436622626182,3.54400400273814
104,1436622626912,1.52728452742625
105,1436622627642,13.5058266277139
106,1436622628376,0.561190935935153
107,1436622629064,6.81464472618297
108,1436622630452,4.86852337770387
109,1436622631998,8.73063123434162
110,1436622632668,36.13908656984
111,1436622633379,29.0561065684677
112,1436622634131,0.714927509260971
113,1436622634857,5.86242207205041
114,1436622635507,1.94596266413911
115,1436622636103,2.26520924286421
116,1436622636785,1.52728452742625
117,1436622637514,32.0042596164902
118,1436622638157,3.78594345748012
119,1436622638833,4.96292106171459
120,1436622639581,2.57000857399895
121,1436622640318,2.02198844174209
122,1436622641072,0.0538415021692703
123,1436622641864,13.7032890615414
124,1436622642588,15.0016511946077
125,1436622643340,3.47300178471432
126,1436622644098,10.535247408676
127,1436622644818,1.27550198126584
128,1436622645581,1.03081285292561
129,1436622646385,2.30419445031316
130,1436622647107,0.607026871526848
131,1436622647773,19.6376812687942
132,1436622648507,1.51348644726
133,1436622649289,3.77427671343184
134,1436622650016,21.3298569123261
135,1436622650749,12.2736334935556
136,1436622651517,10.350678486078
137,1436622652316,11.6830962907091
138,1436622653053,17.1923291838469
139,1436622653834,4.33085859072699
140,1436622654479,16.9875095432559
141,1436622655213,5.71247697359297
142,1436622656609,0.934835195290234
143,1436622657239,4.57601863937627
144,1436622657965,0.657970651804447
145,1436622658692,2.75920595235649
146,1436622659452,0.561190935935153
147,1436622660223,1.82576271015737
148,1436622660959,16.0821981075354
149,1436622662858,1.50327375985409
150,1436622663609,1.1931706573692
151,1436622664334,15.3100777068801
152,1436622665063,18.8766545152167
153,1436622665721,10.7355957517624
154,1436622666562,13.4857591032588
155,1436622667309,9.50310520706201
156,1436622668000,15.6858228675862
157,1436622669535,33.0099764448331
158,1436622670163,2.09138340184834
159,1436622670881,39.4469577789675
160,1436622671622,39.7444401775272
161,1436622672345,10.3585350290303
162,1436622673025,24.0406258284437
163,1436622674433,16.9077700866389
164,1436622675205,15.3714929412007
165,1436622675950,34.0426446141776
166,1436622676672,5.35995770958344
167,1436622677398,30.2504372978234
168,1436622678165,4.84819635397228
169,1436622678870,1.41016963444521
170,1436622679557,32.9217171610018
171,1436622680322,5.49693515326913
172,1436622681067,24.996046768583
173,1436622681807,3.48515838521245
174,1436622682549,7.24967277763043
175,1436622683305,2.45793102363898
176,1436622683984,4.50228490961431
177,1436622684641,12.2855966153094
178,1436622685369,3.77427671343184
179,1436622686101,6.23509411073613
180,1436622686833,33.6771162554047
181,1436622687573,24.2676088386032
182,1436622688314,2.75644458223689
183,1436622689015,1.20629133907571
184,1436622689645,17.1347045822582
185,1436622690334,12.7410345611486
186,1436622691074,1.99742888823137
187,1436622691817,5.44401751420433
188,1436622693322,37.8093015097261
189,1436622694024,28.4918648598893
190,1436622694665,13.2937780888174
191,1436622695390,12.4945011407456
192,1436622696142,16.3621095249711
193,1436622696869,12.5249641219258
194,1436622697643,5.30840925182723
195,1436622698383,0.61925191174067
196,1436622699107,5.22710547905423
197,1436622699781,1.70528029794061
198,1436622700516,17.2098782954059
199,1436622701285,5.21600529909233
200,1436622702006,2.19065179247934
201,1436622702738,10.2524851954921
202,1436622703483,12.593288917757
203,1436622704249,18.5792892725887
204,1436622704971,20.3966700560856
205,1436622705709,2.76355542146995
206,1436622706438,2.45793102363898
207,1436622707925,4.47633397402893
208,1436622708655,18.9823954286457
209,1436622709415,28.7685867704925
210,1436622710165,26.0927522392761
211,1436622710891,10.2268222044248
212,1436622711626,18.2236224732095
213,1436622712375,1.52728452742625
214,1436622713105,8.02504762491499
215,1436622714598,0.360352170052341
216,1436622715156,0.851715999867079
217,1436622715821,10.4079273819107
218,1436622716480,16.8226391307718
219,1436622717072,5.87423005845974
220,1436622717749,1.03081285292561
221,1436622718474,16.3884982300378
222,1436622719236,32.7616013486928
223,1436622719924,21.2546915810853
224,1436622720598,21.5372088692428
225,1436622721349,13.6121892345527
226,1436622722092,6.81711038218932
227,1436622722820,7.8415835918787
228,1436622723573,35.1426015824303
229,1436622724315,8.18654076551283
230,1436622725059,29.5035194542112
231,1436622725795,18.8134153274604
232,1436622726518,20.4404070191258
233,1436622727301,25.8271618728905
234,1436622728019,11.9062232775226
235,1436622728772,22.5975704747265
236,1436622729468,6.68174465232497
237,1436622730150,7.90392810713262
238,1436622730861,16.3384564373872
239,1436622731605,2.96191969526656
240,1436622732322,16.8179365670411
241,1436622733063,23.402452107052
242,1436622733791,18.5782494223874
243,1436622734476,1.22867766496779
244,1436622735044,5.87526949636893
245,1436622735691,2.4094515137596
246,1436622736433,17.358610169667
247,1436622737189,17.1114788517483
248,1436622737904,1.63007732047447
249,1436622738655,7.89904916462483
250,1436622739405,20.259069353315
251,1436622740099,0.657970651804447
252,1436622740750,8.52485579146222
253,1436622741501,4.31301208837695
254,1436622742257,1.56705970689531
255,1436622742952,3.21370224142697
256,1436622744434,3.10841744157983
257,1436622745189,3.89263283198073
258,1436622745930,4.63496935793588
259,1436622746650,14.5913712530374
260,1436622747387,8.05119534793547
261,1436622748142,17.345265590541
262,1436622748872,0.7790303067652
263,1436622749609,20.6975224964203
264,1436622750279,14.3932040539993
265,1436622751008,24.2431118812522
266,1436622751718,37.2855850950361
267,1436622752475,2.45793102363898
268,1436622753235,8.43984094137461
269,1436622753976,31.5798540013839
270,1436622754693,7.9913440197297
271,1436622755295,2.02198844174209
272,1436622755980,11.2677424110671
273,1436622756727,42.9906077192182
274,1436622757479,39.9457880228054
275,1436622758262,11.8911531503402
276,1436622759602,4.23044256322597
277,1436622760350,6.60381436052449
278,1436622761105,3.55014591335898
279,1436622761841,11.7215800094322
280,1436622762592,29.2169295423721
281,1436622763303,31.1556916881724
282,1436622764036,27.4452298473075
283,1436622764743,47.3049254283973
284,1436622765409,36.8126837992759
285,1436622766157,16.9324294131063
286,1436622766868,44.5335425559453
287,1436622767611,35.7119243025598
288,1436622768362,37.6604479966034
289,1436622769093,20.8907148215524
290,1436622769816,15.2695124829333
291,1436622770566,13.0623131925606
292,1436622771375,15.3468171017692
293,1436622772117,13.4776346447258
294,1436622772868,32.5852492220664
295,1436622773609,7.30441773016206
296,1436622774352,2.4395481815645
297,1436622775122,16.6437900289271
298,1436622775788,19.2726113245177
299,1436622776532,16.7809935472141
300,1436622777241,20.5115357542483
301,1436622777870,0.607026871526848
302,1436622778441,28.2738938378104
303,1436622778996,26.8700846617824
304,1436622779580,14.5774249591719
305,1436622780172,9.38227659616722
306,1436622780829,1.76564579708348
307,1436622781564,22.0923320351345
308,1436622782353,12.6053030473961
309,1436622783174,18.521902892494
310,1436622783735,25.2332094856477
311,1436622784287,5.59843739710357
312,1436622784830,15.7332689035488
313,1436622786394,0.33557072774137
314,1436622787769,2.26225887271421
315,1436622788501,20.2562206318081
316,1436622789749,0.7790303067652
317,1436622790300,2.98808203323319
318,1436622790853,9.40296550544385
319,1436622791438,22.633646523268
320,1436622792075,17.7833142783181
321,1436622792875,16.9078955578307
322,1436622793562,20.6965766512766
323,1436622794143,2.26520924286421
324,1436622794707,10.5355550698278
325,1436622795270,6.23205382131006
326,1436622795816,2.23986376343248
327,1436622796989,10.8370982098699
328,1436622797740,2.94642301026734
329,1436622798462,5.71247697359297
330,1436622799224,18.4760397884783
331,1436622799975,40.3040344838292
332,1436622800539,30.3588794426325
333,1436622801086,10.4692140736027
334,1436622801647,5.46903483249744
335,1436622802255,3.61776996319271
336,1436622802984,31.1903548242148
337,1436622803711,29.6754125422398
338,1436622804305,35.9432736094497
339,1436622804919,36.884514818373
340,1436622805501,28.488171979289
341,1436622806080,1.03081285292561
342,1436622806643,37.2593879359141
343,1436622807189,42.1923517112831
344,1436622808888,22.6277452651624
345,1436622809576,35.0265828558305
346,1436622810349,39.4385079805264
347,1436622811093,46.0692521540083
348,1436622811852,40.090084287506
349,1436622812588,39.202390844044
350,1436622813350,22.7740733196795
351,1436622814069,40.7105208048443
352,1436622814731,40.5880738568604
353,1436622815445,36.7827155836078
354,1436622816069,24.2394957752307
355,1436622816735,3.40460859955158
356,1436622817468,13.4205330239289
357,1436622818230,1.22867766496779
358,1436622818926,3.26263696036872
359,1436622819592,0.416120513402239
360,1436622820302,14.4013717553912
361,1436622821029,19.0029350762525
362,1436622821773,13.0870752544988
363,1436622822515,0.447648278101341
364,1436622823987,12.9984849946422
365,1436622826226,5.71247697359297
366,1436622826977,6.28274011323718
367,1436622829172,23.0497775202259
368,1436622829919,2.37481182821582
369,1436622830629,0.981036844851714
370,1436622831310,10.476428268069
371,1436622832090,3.14764953042526
372,1436622832820,7.34267514091712
373,1436622833586,3.66856478419817
374,1436622834314,0.561190935935153
375,1436622835041,2.05386330187324
376,1436622835796,6.17107618651776
377,1436622836550,2.81335997098923
378,1436622837365,2.02198844174209
379,1436622838106,11.9258415470599
380,1436622838842,10.5314452942537
381,1436622839521,18.0081813200131
382,1436622840175,4.48974210651333
383,1436622840890,13.5761037012075
384,1436622841628,15.9115873882472
385,1436622842421,1.99974543435474
386,1436622843170,20.7591404660655
387,1436622843915,2.56031990635961
388,1436622844643,24.161437816669
389,1436622845391,23.7525348006076
390,1436622846157,2.4286362584735
391,1436622846922,16.5053287241783
392,1436622847628,30.5751918084536
393,1436622848317,2.36974864553787
394,1436622849054,19.7595208422777
395,1436622849830,15.5890159380433
396,1436622850572,25.8735593003238
397,1436622851379,15.4373289036947
398,1436622852114,0.188348734813989
399,1436622852801,0.0393589817018015
400,1436622853556,22.4492382301752
401,1436622854313,8.0297135559537
402,1436622855737,12.4440258692087
403,1436622856346,1.406119324445
404,1436622857022,10.1036160303284
405,1436622857751,8.05131111889157
406,1436622858514,5.99359826288219
407,1436622859216,8.87448012875549
408,1436622860974,15.9110813406524
409,1436622861661,12.7687456274379
410,1436622862390,7.25313780214015
411,1436622863131,31.692687763856
412,1436622863854,12.349355835157
413,1436622864581,17.2065583953437
414,1436622865331,11.465797655713
415,1436622866078,14.904793630207
416,1436622867617,13.7036872206003
417,1436622868340,0.519730763477847
418,1436622869740,8.01816268908837
419,1436622871154,2.96602261912087
420,1436622871817,9.84195473458101
421,1436622872614,13.1573945127808
422,1436622873348,17.7536768001522
423,1436622874054,5.69397666918029
424,1436622874692,4.90721337324787
425,1436622875400,2.19065179247934
426,1436622876128,14.8239048868058
427,1436622876814,28.4310236737023
428,1436622877632,35.6503053226036
429,1436622878362,0.387119185497583
430,1436622879100,5.42292050622051
431,1436622879826,10.7641443054435
432,1436622880464,20.0830705470419
433,1436622881208,16.7267877466135
434,1436622881932,46.5815443209394
435,1436622882708,28.7360176624512
436,1436622883439,36.4847642492752
437,1436622884201,15.5956403283529
438,1436622885981,33.5755976889799
439,1436622886634,17.8121294581993
440,1436622887366,15.3224160493318
441,1436622888119,1.63007732047447
442,1436622888839,3.54400400273814
443,1436622889560,3.21370224142697
444,1436622890290,2.85324015876152
445,1436622890985,6.94283773197727
446,1436622891656,2.71314212738835
447,1436622892383,4.21980460765488
448,1436622893096,2.10985223644454
449,1436622894403,13.102887803233
450,1436622895075,1.14289040328558
451,1436622895809,2.23673089067063
452,1436622896510,19.508927517177
453,1436622897245,16.1207467914349
454,1436622897973,39.1528429401365
455,1436622898707,29.4379497764417
456,1436622899448,38.0409177746569
457,1436622900228,37.7685051341479
458,1436622900944,37.1295324538352
459,1436622901677,39.1379152877807
460,1436622902359,28.5011317844516
461,1436622903023,8.11970925705435
462,1436622903740,28.6174493838673
463,1436622904471,8.85328099514943
464,1436622905233,18.1344742477725
465,1436622905970,26.7644674741117
466,1436622906709,30.1220824958439
467,1436622907450,32.2540353176039
468,1436622908235,27.5443658788717
469,1436622908939,40.4958871698498
470,1436622909694,34.3253806284835
471,1436622910423,40.6177161390391
472,1436622911179,33.3816461832493
473,1436622911917,5.65999409706999
474,1436622912548,31.8843483195686
475,1436622913196,45.7829244441328
476,1436622913918,40.9959554561585
477,1436622914649,42.1656046719631
478,1436622915378,22.0708629459708
479,1436622916109,2.85065699453785
480,1436622917431,5.32504889223807
481,1436622918116,26.1339324238165
482,1436622918851,2.13619462576988
483,1436622919599,4.24021113741932
484,1436622920320,2.65639867499194
485,1436622921020,3.41808554506069
486,1436622921704,2.19065179247934
487,1436622922425,10.8666558970854
488,1436622923186,0.447648278101341
489,1436622923926,2.87634373568106
490,1436622924648,22.1246990965644
491,1436622925378,1.95087549777578
492,1436622926135,4.35447226083425
493,1436622926881,1.27550198126584
494,1436622928327,12.5259366891311
495,1436622929066,4.45144205865119
496,1436622929816,8.98961302636636
497,1436622930612,3.40460859955158
498,1436622931222,4.53691696252925
499,1436622931815,21.1970482511664
500,1436622932404,19.8714466019866
501,1436622933032,11.939838849537
502,1436622933752,23.4481548742026
503,1436622934557,21.0074243779711
504,1436622935272,27.6588037488999
505,1436622935827,0.714927509260971
506,1436622936411,0.934835195290234
507,1436622936965,1.57727539715031
508,1436622937531,39.5949569958143
509,1436622938475,39.9609686756374
510,1436622939237,28.1678907484817
511,1436622939957,26.0177297575933
512,1436622940713,30.1851439606493
513,1436622941304,0.561190935935153
514,1436622941887,16.208513445977
515,1436622942426,15.7955613965615
516,1436622943031,19.0697876197125
517,1436622943675,7.06608488056908
518,1436622944385,25.4779260309827
519,1436622945142,1.14289040328558
520,1436622945857,0.657970651804447
521,1436622946436,1.30499569258596
522,1436622947000,3.67829905579647
523,1436622947555,1.87476644881471
524,1436622948105,23.2217410107542
525,1436622949022,28.5743848859602
526,1436622949762,11.3378160202345
527,1436622950482,0.657970651804447
528,1436622951248,16.013038402096
529,1436622951996,7.40359166736912
530,1436622952559,4.47374657763265
531,1436622953122,10.2520772377842
532,1436622953703,30.1653532061992
533,1436622954437,9.39726921735813
534,1436622955180,1.43488057469135
535,1436622955891,20.7265053475965
536,1436622956465,39.2562445060658
537,1436622957021,32.1534660667148
538,1436622957590,10.0329935712518
539,1436622958154,8.40051343960085
540,1436622958705,38.3384527078144
541,1436622959868,20.8503012446497
542,1436622960574,30.1869436484907
543,1436622961298,42.4937324338719
544,1436622961990,16.8530494628753
545,1436622962650,13.7105576645753
546,1436622963359,35.5026296211247
547,1436622964070,20.6199536789445
548,1436622964735,0.561190935935153
549,1436622965469,28.8182911011473
550,1436622966237,8.26686212240702
551,1436622967635,32.1416081337832
552,1436622968324,11.5972391805308
553,1436622969039,19.0364250797043
554,1436622969793,19.0262493164868
555,1436622970528,3.338681226967
556,1436622971285,14.9434667738364
557,1436622972103,20.2150581202799
558,1436622972837,2.04466701764936
559,1436622973582,3.101624691067
560,1436622974309,15.931621971546
561,1436622975039,7.20514933953105
562,1436622975788,9.46557677900897
563,1436622976519,0.965258657700892
564,1436622977310,1.52728452742625
565,1436622977932,9.27442180865857
566,1436622979354,11.191335077493
567,1436622980105,7.35621209733997
568,1436622980844,30.0327555373097
569,1436622981596,6.38829067480647
570,1436622982335,23.9486164259886
571,1436622983004,2.89616699945021
572,1436622983647,29.1520241571626
573,1436622985827,12.8327593668537
574,1436622986572,13.8508707740623
