id,attr_time,attr_light
1,1437067245645,90.0
2,1437067245664,90.0
3,1437067245684,90.0
4,1437067245704,90.0
5,1437067245725,90.0
6,1437067245744,90.0
7,1437067245762,88.0
8,1437067245785,86.0
9,1437067245805,86.0
10,1437067245824,86.0
11,1437067245844,86.0
12,1437067245864,88.0
13,1437067245885,88.0
14,1437067245903,89.0
15,1437067245924,89.0
16,1437067245945,90.0
17,1437067245964,90.0
18,1437067245984,90.0
19,1437067246004,89.0
20,1437067246025,89.0
21,1437067246046,89.0
22,1437067246076,89.0
23,1437067246147,89.0
24,1437067246148,89.0
25,1437067246149,89.0
26,1437067246150,89.0
27,1437067246164,89.0
28,1437067246189,89.0
29,1437067246204,89.0
30,1437067246225,89.0
31,1437067246245,89.0
32,1437067246268,89.0
33,1437067246292,89.0
34,1437067246310,90.0
35,1437067246348,90.0
36,1437067246349,90.0
37,1437067246365,90.0
38,1437067246386,90.0
39,1437067246405,90.0
40,1437067246428,90.0
41,1437067246446,90.0
42,1437067246464,90.0
43,1437067246484,89.0
44,1437067246504,89.0
45,1437067246525,89.0
46,1437067246545,89.0
47,1437067246569,88.0
48,1437067246585,88.0
49,1437067246605,88.0
50,1437067246625,88.0
51,1437067246645,88.0
52,1437067246664,88.0
53,1437067246686,88.0
54,1437067246704,88.0
55,1437067246728,88.0
56,1437067246751,88.0
57,1437067246770,88.0
58,1437067246785,87.0
59,1437067246808,87.0
60,1437067246833,87.0
61,1437067246891,86.0
62,1437067246892,86.0
63,1437067246893,86.0
64,1437067246914,86.0
65,1437067246926,87.0
66,1437067246950,87.0
67,1437067246966,87.0
68,1437067246985,87.0
69,1437067247008,87.0
70,1437067247028,87.0
71,1437067247047,87.0
72,1437067247066,87.0
73,1437067247087,87.0
74,1437067247105,86.0
75,1437067247126,86.0
76,1437067247148,86.0
77,1437067247167,86.0
78,1437067247187,86.0
79,1437067247207,86.0
80,1437067247226,86.0
81,1437067247247,86.0
82,1437067247270,87.0
83,1437067247287,88.0
84,1437067247307,88.0
85,1437067247335,88.0
86,1437067247348,88.0
87,1437067247393,89.0
88,1437067247394,89.0
89,1437067247406,89.0
90,1437067247425,89.0
91,1437067247446,89.0
92,1437067247465,89.0
93,1437067247485,89.0
94,1437067247506,90.0
95,1437067247909,90.0
96,1437067247910,90.0
97,1437067247911,90.0
98,1437067247912,90.0
99,1437067247913,90.0
100,1437067247914,91.0
101,1437067247915,91.0
102,1437067247916,91.0
103,1437067247917,91.0
104,1437067247918,91.0
105,1437067247919,91.0
106,1437067247920,91.0
107,1437067247921,91.0
108,1437067247922,91.0
109,1437067247923,92.0
110,1437067247924,92.0
111,1437067247925,92.0
112,1437067247926,92.0
113,1437067247927,92.0
114,1437067247928,92.0
115,1437067247929,92.0
116,1437067247961,93.0
117,1437067247968,93.0
118,1437067247986,93.0
119,1437067248006,93.0
120,1437067248026,93.0
121,1437067248044,93.0
122,1437067248064,92.0
123,1437067248084,92.0
124,1437067248106,92.0
125,1437067248125,93.0
126,1437067248149,93.0
127,1437067248166,94.0
128,1437067248185,94.0
129,1437067248205,94.0
130,1437067248227,94.0
131,1437067248249,93.0
132,1437067248269,93.0
133,1437067248289,92.0
134,1437067248309,92.0
135,1437067248327,92.0
136,1437067248345,92.0
137,1437067248375,92.0
138,1437067248385,92.0
139,1437067248405,92.0
140,1437067248425,93.0
141,1437067248447,93.0
142,1437067248467,93.0
143,1437067248486,93.0
144,1437067248510,93.0
145,1437067248530,93.0
146,1437067248547,93.0
147,1437067248567,94.0
148,1437067248586,94.0
149,1437067248609,94.0
150,1437067248625,94.0
151,1437067248650,94.0
152,1437067248669,94.0
153,1437067248689,92.0
154,1437067248706,92.0
155,1437067248728,92.0
156,1437067248749,92.0
157,1437067248769,93.0
158,1437067248791,94.0
159,1437067248807,94.0
160,1437067248826,95.0
161,1437067248847,95.0
162,1437067248866,96.0
163,1437067248889,96.0
164,1437067248909,96.0
165,1437067248929,96.0
166,1437067248948,96.0
167,1437067248966,94.0
168,1437067248996,94.0
169,1437067249012,92.0
170,1437067249031,92.0
171,1437067249047,91.0
172,1437067249066,91.0
173,1437067249089,93.0
174,1437067249106,93.0
175,1437067249130,97.0
176,1437067249152,97.0
177,1437067249169,102.0
178,1437067249189,104.0
179,1437067249207,104.0
180,1437067249227,104.0
181,1437067249247,104.0
182,1437067249268,102.0
183,1437067249293,102.0
184,1437067249311,102.0
185,1437067249330,102.0
186,1437067249351,103.0
187,1437067249372,103.0
188,1437067249390,105.0
189,1437067249409,106.0
190,1437067249427,106.0
191,1437067249447,105.0
192,1437067249467,105.0
193,1437067249488,105.0
194,1437067249507,105.0
195,1437067249530,104.0
196,1437067249550,104.0
197,1437067249567,103.0
198,1437067249589,103.0
199,1437067249607,105.0
200,1437067249631,106.0
201,1437067249647,106.0
202,1437067249796,103.0
203,1437067249797,103.0
204,1437067249798,97.0
205,1437067249799,97.0
206,1437067249800,103.0
207,1437067249801,103.0
208,1437067249802,107.0
209,1437067249814,107.0
210,1437067249828,97.0
211,1437067249850,88.0
212,1437067249867,88.0
213,1437067249896,90.0
214,1437067249907,90.0
215,1437067249927,98.0
216,1437067249948,98.0
217,1437067249968,96.0
218,1437067249990,96.0
219,1437067250019,90.0
220,1437067250027,90.0
221,1437067250047,85.0
222,1437067250069,79.0
223,1437067250090,79.0
224,1437067250109,91.0
225,1437067250128,91.0
226,1437067250151,98.0
227,1437067250168,98.0
228,1437067250191,97.0
229,1437067250227,97.0
230,1437067250228,104.0
231,1437067250247,104.0
232,1437067250269,104.0
233,1437067250289,99.0
234,1437067250309,99.0
235,1437067250330,102.0
236,1437067250349,102.0
237,1437067250369,107.0
238,1437067250387,107.0
239,1437067250409,114.0
240,1437067250433,114.0
241,1437067250462,117.0
242,1437067250471,120.0
243,1437067250487,120.0
244,1437067250507,116.0
245,1437067250529,116.0
246,1437067250550,91.0
247,1437067250568,91.0
248,1437067250589,83.0
249,1437067250610,83.0
250,1437067250629,92.0
251,1437067250651,92.0
252,1437067250668,109.0
253,1437067250691,114.0
254,1437067250711,114.0
255,1437067250731,111.0
256,1437067250752,111.0
257,1437067250771,109.0
258,1437067250791,109.0
259,1437067250809,103.0
260,1437067250831,103.0
261,1437067250852,95.0
262,1437067250871,95.0
263,1437067250891,95.0
264,1437067250912,64.0
265,1437067250932,64.0
266,1437067250950,88.0
267,1437067250970,88.0
268,1437067250990,104.0
269,1437067251009,104.0
270,1437067251036,97.0
271,1437067251050,97.0
272,1437067251072,92.0
273,1437067251151,92.0
274,1437067251152,76.0
275,1437067251153,74.0
276,1437067251154,74.0
277,1437067251169,78.0
278,1437067251206,78.0
279,1437067251310,86.0
280,1437067251311,86.0
281,1437067251312,89.0
282,1437067251313,89.0
283,1437067251314,93.0
284,1437067251315,93.0
285,1437067251431,102.0
286,1437067251432,112.0
287,1437067251433,112.0
288,1437067251434,111.0
289,1437067251435,111.0
290,1437067251436,112.0
291,1437067251552,112.0
292,1437067251553,102.0
293,1437067251554,102.0
294,1437067251555,94.0
295,1437067251556,98.0
296,1437067251557,98.0
297,1437067251570,102.0
298,1437067251588,102.0
299,1437067251608,99.0
300,1437067251628,99.0
301,1437067251648,96.0
302,1437067251668,96.0
303,1437067251688,91.0
304,1437067251708,91.0
305,1437067251728,94.0
306,1437067251748,69.0
307,1437067251768,69.0
308,1437067251789,74.0
309,1437067251808,74.0
310,1437067251829,83.0
311,1437067251848,83.0
312,1437067251869,85.0
313,1437067251888,85.0
314,1437067251908,82.0
315,1437067251929,82.0
316,1437067251948,67.0
317,1437067251968,62.0
318,1437067251988,62.0
319,1437067252016,77.0
320,1437067252029,77.0
321,1437067252048,80.0
322,1437067252068,80.0
323,1437067252088,76.0
324,1437067252109,76.0
325,1437067252128,73.0
326,1437067252148,73.0
327,1437067252169,61.0
328,1437067252188,60.0
329,1437067252209,60.0
330,1437067252230,62.0
331,1437067252248,62.0
332,1437067252269,66.0
333,1437067252289,66.0
334,1437067252312,68.0
335,1437067252329,68.0
336,1437067252349,70.0
337,1437067252370,70.0
338,1437067252389,83.0
339,1437067252409,85.0
340,1437067252429,85.0
341,1437067252450,77.0
342,1437067252469,77.0
343,1437067252489,71.0
344,1437067252509,71.0
345,1437067252529,73.0
346,1437067252549,73.0
347,1437067252569,75.0
348,1437067252589,75.0
349,1437067252609,69.0
350,1437067252630,67.0
351,1437067252650,67.0
352,1437067252669,58.0
353,1437067252692,58.0
354,1437067252709,54.0
355,1437067252729,54.0
356,1437067252749,51.0
357,1437067252769,51.0
358,1437067252789,54.0
359,1437067252810,62.0
360,1437067252829,62.0
361,1437067252849,63.0
362,1437067252869,63.0
363,1437067252889,57.0
364,1437067252918,57.0
365,1437067252931,45.0
366,1437067252954,45.0
367,1437067252973,34.0
368,1437067252991,34.0
369,1437067253010,51.0
370,1437067253029,57.0
371,1437067253051,57.0
372,1437067253070,53.0
373,1437067253094,53.0
374,1437067253114,51.0
375,1437067253134,51.0
376,1437067253150,48.0
377,1437067253175,48.0
378,1437067253203,47.0
379,1437067253210,47.0
380,1437067253232,48.0
381,1437067253251,46.0
382,1437067253271,46.0
383,1437067253293,45.0
384,1437067253312,45.0
385,1437067253332,47.0
386,1437067253352,47.0
387,1437067253372,48.0
388,1437067253393,48.0
389,1437067253412,41.0
390,1437067253432,41.0
391,1437067253455,42.0
392,1437067253474,39.0
393,1437067253493,39.0
394,1437067253513,44.0
395,1437067253533,44.0
396,1437067253552,49.0
397,1437067253571,49.0
398,1437067253592,54.0
399,1437067253611,54.0
400,1437067253633,46.0
401,1437067253652,46.0
402,1437067253672,40.0
403,1437067253694,39.0
404,1437067253713,39.0
405,1437067253734,37.0
406,1437067253753,37.0
407,1437067253772,34.0
408,1437067253794,34.0
409,1437067253816,35.0
410,1437067253836,35.0
411,1437067253853,32.0
412,1437067253879,41.0
413,1437067253955,41.0
414,1437067253956,40.0
415,1437067253962,40.0
416,1437067253963,31.0
417,1437067253972,31.0
418,1437067253996,26.0
419,1437067254013,26.0
420,1437067254033,25.0
421,1437067254066,25.0
422,1437067254072,31.0
423,1437067254092,30.0
424,1437067254112,30.0
425,1437067254134,33.0
426,1437067254153,33.0
427,1437067254173,31.0
428,1437067254194,31.0
429,1437067254214,29.0
430,1437067254234,29.0
431,1437067254254,29.0
432,1437067254274,29.0
433,1437067254293,32.0
434,1437067254312,30.0
435,1437067254332,30.0
436,1437067254353,33.0
437,1437067254374,33.0
438,1437067254394,34.0
439,1437067254413,34.0
440,1437067254434,33.0
441,1437067254454,33.0
442,1437067254475,33.0
443,1437067254496,33.0
444,1437067254515,27.0
445,1437067254533,24.0
446,1437067254552,24.0
447,1437067254572,27.0
448,1437067254602,27.0
449,1437067254659,33.0
450,1437067254660,33.0
451,1437067254661,42.0
452,1437067254684,42.0
453,1437067254693,44.0
454,1437067254713,44.0
455,1437067254735,42.0
456,1437067254752,40.0
457,1437067254773,40.0
458,1437067254794,37.0
459,1437067254812,37.0
460,1437067254833,35.0
461,1437067254853,35.0
462,1437067254876,34.0
463,1437067254894,34.0
464,1437067254914,34.0
465,1437067254933,34.0
466,1437067254952,32.0
467,1437067254972,34.0
468,1437067254993,34.0
469,1437067255013,29.0
470,1437067255034,29.0
471,1437067255054,26.0
472,1437067255078,26.0
473,1437067255095,21.0
474,1437067255114,21.0
475,1437067255135,21.0
476,1437067255156,19.0
477,1437067255175,19.0
478,1437067255195,19.0
479,1437067255225,19.0
480,1437067255232,24.0
481,1437067255253,24.0
482,1437067255272,23.0
483,1437067255295,23.0
484,1437067255465,22.0
485,1437067255466,22.0
486,1437067255467,25.0
487,1437067255468,29.0
488,1437067255469,29.0
489,1437067255470,26.0
490,1437067255471,26.0
491,1437067255472,28.0
492,1437067255497,28.0
493,1437067255498,29.0
494,1437067255514,29.0
495,1437067255538,31.0
496,1437067255554,31.0
497,1437067255574,25.0
498,1437067255594,22.0
499,1437067255614,22.0
500,1437067255636,24.0
501,1437067255655,24.0
502,1437067255673,29.0
503,1437067255694,29.0
504,1437067255714,30.0
505,1437067255736,30.0
506,1437067255754,31.0
507,1437067255776,31.0
508,1437067255794,30.0
509,1437067255814,30.0
510,1437067255836,30.0
511,1437067255854,28.0
512,1437067255874,28.0
513,1437067255894,28.0
514,1437067255914,28.0
515,1437067255936,29.0
516,1437067255954,29.0
517,1437067255974,27.0
518,1437067255994,27.0
519,1437067256014,26.0
520,1437067256039,29.0
521,1437067256056,29.0
522,1437067256075,28.0
523,1437067256094,28.0
524,1437067256114,22.0
525,1437067256137,22.0
526,1437067256164,21.0
527,1437067256221,21.0
528,1437067256222,17.0
529,1437067256223,17.0
530,1437067256251,16.0
531,1437067256253,21.0
532,1437067256276,21.0
533,1437067256299,16.0
534,1437067256314,16.0
535,1437067256339,18.0
536,1437067256356,18.0
537,1437067256375,17.0
538,1437067256394,17.0
539,1437067256417,18.0
540,1437067256438,21.0
541,1437067256454,21.0
542,1437067256475,21.0
543,1437067256496,21.0
544,1437067256515,24.0
545,1437067256537,24.0
546,1437067256554,24.0
547,1437067256575,24.0
548,1437067256596,22.0
549,1437067256614,22.0
550,1437067256637,21.0
551,1437067256656,23.0
552,1437067256676,23.0
553,1437067256696,24.0
554,1437067256715,24.0
555,1437067256738,25.0
556,1437067256755,25.0
557,1437067256775,26.0
558,1437067256795,26.0
559,1437067256817,28.0
560,1437067256838,28.0
561,1437067256856,27.0
562,1437067256875,27.0
563,1437067256894,27.0
564,1437067256923,25.0
565,1437067256988,25.0
566,1437067256989,24.0
567,1437067256990,24.0
568,1437067257012,26.0
569,1437067257015,26.0
570,1437067257041,26.0
571,1437067257063,26.0
572,1437067257074,26.0
573,1437067257096,27.0
574,1437067257115,27.0
575,1437067257134,26.0
576,1437067257155,26.0
577,1437067257175,21.0
578,1437067257195,21.0
579,1437067257216,18.0
580,1437067257235,18.0
581,1437067257255,17.0
582,1437067257276,17.0
583,1437067257295,15.0
584,1437067257315,19.0
585,1437067257335,19.0
586,1437067257356,15.0
587,1437067257377,15.0
588,1437067257397,13.0
589,1437067257417,13.0
590,1437067257437,13.0
591,1437067257455,13.0
592,1437067257476,21.0
593,1437067257495,21.0
594,1437067257515,20.0
595,1437067257535,17.0
596,1437067257555,17.0
597,1437067257578,23.0
598,1437067257597,23.0
599,1437067257615,22.0
600,1437067257636,22.0
601,1437067257656,23.0
602,1437067257724,23.0
603,1437067257727,23.0
604,1437067257741,22.0
605,1437067257742,22.0
606,1437067257755,24.0
607,1437067257781,24.0
608,1437067257799,25.0
609,1437067257815,25.0
610,1437067257835,28.0
611,1437067257855,28.0
612,1437067257877,28.0
613,1437067257899,28.0
614,1437067257917,27.0
615,1437067257937,25.0
616,1437067257956,25.0
617,1437067257976,24.0
618,1437067257997,24.0
619,1437067258017,23.0
620,1437067258039,23.0
621,1437067258057,22.0
622,1437067258079,22.0
623,1437067258098,23.0
624,1437067258117,23.0
625,1437067258140,21.0
626,1437067258159,18.0
627,1437067258177,18.0
628,1437067258217,15.0
629,1437067258218,15.0
630,1437067258235,15.0
631,1437067258255,15.0
632,1437067258275,17.0
633,1437067258295,17.0
634,1437067258316,18.0
635,1437067258335,18.0
636,1437067258356,19.0
637,1437067258376,20.0
638,1437067258480,20.0
639,1437067258481,16.0
640,1437067258482,16.0
641,1437067258483,17.0
642,1437067258484,17.0
643,1437067258497,16.0
644,1437067258521,16.0
645,1437067258536,19.0
646,1437067258556,19.0
647,1437067258576,17.0
648,1437067258610,20.0
649,1437067258628,20.0
650,1437067258636,18.0
651,1437067258656,18.0
652,1437067258676,17.0
653,1437067258696,17.0
654,1437067258716,14.0
655,1437067258736,14.0
656,1437067258755,15.0
657,1437067258775,15.0
658,1437067258795,20.0
659,1437067258816,24.0
660,1437067258836,24.0
661,1437067258856,25.0
662,1437067258876,25.0
663,1437067258899,26.0
664,1437067258918,26.0
665,1437067258940,26.0
666,1437067258957,26.0
667,1437067258975,26.0
668,1437067258996,26.0
669,1437067259017,26.0
670,1437067259037,26.0
671,1437067259061,26.0
672,1437067259079,25.0
673,1437067259099,25.0
674,1437067259117,25.0
675,1437067259161,25.0
676,1437067259162,23.0
677,1437067259175,23.0
678,1437067259195,23.0
679,1437067259216,22.0
680,1437067259235,22.0
681,1437067259255,21.0
682,1437067259275,21.0
683,1437067259295,18.0
684,1437067259315,18.0
685,1437067259335,17.0
686,1437067259355,17.0
687,1437067259375,20.0
688,1437067259395,20.0
689,1437067259415,20.0
690,1437067259435,19.0
691,1437067259455,19.0
692,1437067259475,20.0
693,1437067259495,20.0
694,1437067259515,20.0
695,1437067259537,20.0
696,1437067259556,17.0
697,1437067259578,17.0
698,1437067259599,19.0
699,1437067259620,19.0
700,1437067259640,20.0
701,1437067259657,21.0
702,1437067259676,21.0
703,1437067259697,24.0
704,1437067259720,24.0
705,1437067259798,26.0
706,1437067259799,26.0
707,1437067259800,24.0
708,1437067259801,24.0
709,1437067259817,23.0
710,1437067259837,23.0
711,1437067259857,22.0
712,1437067259877,18.0
713,1437067259899,18.0
714,1437067259918,17.0
715,1437067259938,17.0
716,1437067259957,18.0
717,1437067259978,18.0
718,1437067260000,19.0
719,1437067260021,19.0
720,1437067260039,16.0
721,1437067260063,15.0
722,1437067260080,15.0
723,1437067260100,15.0
724,1437067260118,15.0
725,1437067260137,19.0
726,1437067260159,19.0
727,1437067260178,21.0
728,1437067260198,21.0
729,1437067260219,24.0
730,1437067260330,24.0
731,1437067260331,24.0
732,1437067260332,23.0
733,1437067260333,23.0
734,1437067260334,22.0
735,1437067260338,22.0
736,1437067260360,22.0
737,1437067260381,22.0
738,1437067260400,20.0
739,1437067260419,20.0
740,1437067260448,19.0
741,1437067260503,19.0
742,1437067260504,21.0
743,1437067260505,22.0
744,1437067260524,22.0
745,1437067260538,24.0
746,1437067260564,24.0
747,1437067260580,24.0
748,1437067260598,24.0
749,1437067260621,23.0
750,1437067260640,23.0
751,1437067260660,22.0
752,1437067260678,22.0
753,1437067260718,23.0
754,1437067260719,22.0
755,1437067260739,22.0
756,1437067260759,23.0
757,1437067260781,23.0
758,1437067260801,21.0
759,1437067260821,21.0
760,1437067260839,21.0
761,1437067260859,21.0
762,1437067260880,22.0
763,1437067260901,22.0
764,1437067260921,22.0
765,1437067260939,21.0
766,1437067260961,21.0
767,1437067260978,21.0
768,1437067260999,21.0
769,1437067261019,20.0
770,1437067261039,20.0
771,1437067261060,19.0
772,1437067261083,19.0
773,1437067261100,19.0
774,1437067261119,19.0
775,1437067261138,20.0
776,1437067261158,21.0
777,1437067261177,21.0
778,1437067261226,20.0
779,1437067261227,20.0
780,1437067261237,22.0
781,1437067261261,22.0
782,1437067261279,23.0
783,1437067261299,23.0
784,1437067261320,24.0
785,1437067261340,23.0
786,1437067261360,23.0
787,1437067261406,22.0
788,1437067261407,22.0
789,1437067261419,22.0
790,1437067261439,22.0
791,1437067261462,20.0
792,1437067261481,20.0
793,1437067261500,21.0
794,1437067261519,21.0
795,1437067261539,21.0
796,1437067261562,23.0
797,1437067261582,23.0
798,1437067261602,24.0
799,1437067261622,24.0
800,1437067261644,23.0
801,1437067261661,23.0
802,1437067261681,22.0
803,1437067261699,22.0
804,1437067261720,22.0
805,1437067261739,22.0
806,1437067261762,20.0
807,1437067261783,20.0
808,1437067261804,20.0
809,1437067261820,22.0
810,1437067261840,22.0
811,1437067261860,20.0
812,1437067261883,20.0
813,1437067261902,21.0
814,1437067261922,21.0
815,1437067261993,22.0
816,1437067261994,22.0
817,1437067261995,23.0
818,1437067262009,22.0
819,1437067262024,22.0
820,1437067262046,23.0
821,1437067262081,23.0
822,1437067262082,22.0
823,1437067262100,22.0
824,1437067262152,23.0
825,1437067262153,23.0
826,1437067262161,23.0
827,1437067262190,23.0
828,1437067262200,23.0
829,1437067262221,22.0
830,1437067262242,22.0
831,1437067262264,25.0
832,1437067262281,25.0
833,1437067262301,26.0
834,1437067262322,26.0
835,1437067262342,26.0
836,1437067262361,26.0
837,1437067262381,25.0
838,1437067262401,25.0
839,1437067262421,27.0
840,1437067262441,25.0
841,1437067262461,25.0
842,1437067262480,26.0
843,1437067262499,26.0
844,1437067262525,26.0
845,1437067262547,26.0
846,1437067262566,25.0
847,1437067262586,25.0
848,1437067262600,26.0
849,1437067262624,25.0
850,1437067262642,25.0
851,1437067262662,24.0
852,1437067262680,24.0
853,1437067262765,20.0
854,1437067262766,20.0
855,1437067262767,23.0
856,1437067262768,23.0
857,1437067262784,21.0
858,1437067262805,21.0
859,1437067262826,22.0
860,1437067262840,20.0
861,1437067262862,20.0
862,1437067262885,20.0
863,1437067262901,20.0
864,1437067262922,22.0
865,1437067262942,22.0
866,1437067262961,20.0
867,1437067262983,20.0
868,1437067263000,16.0
869,1437067263024,16.0
870,1437067263044,16.0
