id,attr_time,attr_light
1,1436619017627,31.0
2,1436619017648,31.0
3,1436619017696,31.0
4,1436619017697,31.0
5,1436619017710,31.0
6,1436619017728,31.0
7,1436619017750,31.0
8,1436619017771,31.0
9,1436619017796,31.0
10,1436619017806,31.0
11,1436619017828,31.0
12,1436619017846,31.0
13,1436619017867,31.0
14,1436619017887,31.0
15,1436619017907,31.0
16,1436619017975,31.0
17,1436619017976,31.0
18,1436619017977,31.0
19,1436619017986,31.0
20,1436619018006,31.0
21,1436619018026,31.0
22,1436619018047,31.0
23,1436619018069,31.0
24,1436619018086,31.0
25,1436619018107,31.0
26,1436619018128,31.0
27,1436619018149,31.0
28,1436619018167,31.0
29,1436619018189,31.0
30,1436619018209,31.0
31,1436619018229,31.0
32,1436619018250,31.0
33,1436619018268,31.0
34,1436619018289,31.0
35,1436619018310,31.0
36,1436619018330,31.0
37,1436619018349,31.0
38,1436619018368,31.0
39,1436619018390,31.0
40,1436619018410,31.0
41,1436619018428,31.0
42,1436619018450,31.0
43,1436619018467,31.0
44,1436619018487,31.0
45,1436619018507,31.0
46,1436619018528,31.0
47,1436619018550,31.0
48,1436619018568,31.0
49,1436619018588,31.0
50,1436619018608,31.0
51,1436619018631,31.0
52,1436619018692,31.0
53,1436619018702,31.0
54,1436619018703,31.0
55,1436619018710,31.0
56,1436619018728,31.0
57,1436619018771,31.0
58,1436619018772,31.0
59,1436619018791,31.0
60,1436619018807,31.0
61,1436619018827,31.0
62,1436619018885,31.0
63,1436619018886,31.0
64,1436619018887,31.0
65,1436619018907,31.0
66,1436619018927,31.0
67,1436619018947,31.0
68,1436619018967,31.0
69,1436619018987,31.0
70,1436619019007,31.0
71,1436619019027,31.0
72,1436619019047,31.0
73,1436619019068,31.0
74,1436619019087,31.0
75,1436619019107,31.0
76,1436619019127,31.0
77,1436619019147,31.0
78,1436619019167,31.0
79,1436619019187,31.0
80,1436619019207,31.0
81,1436619019227,31.0
82,1436619019247,31.0
83,1436619019267,31.0
84,1436619019287,31.0
85,1436619019306,31.0
86,1436619019326,31.0
87,1436619019346,31.0
88,1436619019367,31.0
89,1436619019386,31.0
90,1436619019409,31.0
91,1436619019427,31.0
92,1436619019447,31.0
93,1436619019466,31.0
94,1436619019486,31.0
95,1436619019507,31.0
96,1436619019526,31.0
97,1436619019547,31.0
98,1436619019567,31.0
99,1436619019587,31.0
100,1436619019607,31.0
101,1436619019627,31.0
102,1436619019648,31.0
103,1436619019672,31.0
104,1436619019688,31.0
105,1436619019711,31.0
106,1436619019729,31.0
107,1436619019750,31.0
108,1436619019769,31.0
109,1436619019792,31.0
110,1436619019809,31.0
111,1436619019830,31.0
112,1436619019849,31.0
113,1436619019872,31.0
114,1436619019890,32.0
115,1436619019910,32.0
116,1436619019944,31.0
117,1436619019948,31.0
118,1436619019979,31.0
119,1436619019996,31.0
120,1436619020007,31.0
121,1436619020029,31.0
122,1436619020047,32.0
123,1436619020067,31.0
124,1436619020087,31.0
125,1436619020107,32.0
126,1436619020127,32.0
127,1436619020147,31.0
128,1436619020167,31.0
129,1436619020187,32.0
130,1436619020208,32.0
131,1436619020227,32.0
132,1436619020247,32.0
133,1436619020267,32.0
134,1436619020287,32.0
135,1436619020307,32.0
136,1436619020331,32.0
137,1436619020350,32.0
138,1436619020370,31.0
139,1436619020391,31.0
140,1436619020409,31.0
141,1436619020430,31.0
142,1436619020452,31.0
143,1436619020472,31.0
144,1436619020490,31.0
145,1436619020510,31.0
146,1436619020531,32.0
147,1436619020552,32.0
148,1436619020569,32.0
149,1436619020597,32.0
150,1436619020611,32.0
151,1436619020628,32.0
152,1436619020648,32.0
153,1436619020668,31.0
154,1436619020688,31.0
155,1436619020708,32.0
156,1436619020729,32.0
157,1436619020750,32.0
158,1436619020772,32.0
159,1436619020791,32.0
160,1436619020808,32.0
161,1436619020833,32.0
162,1436619020850,32.0
163,1436619020871,32.0
164,1436619020892,32.0
165,1436619020911,32.0
166,1436619020933,32.0
167,1436619020950,32.0
168,1436619020972,32.0
169,1436619020993,32.0
170,1436619021010,32.0
171,1436619021032,32.0
172,1436619021050,32.0
173,1436619021073,32.0
174,1436619021090,32.0
175,1436619021111,32.0
176,1436619021130,32.0
177,1436619021150,32.0
178,1436619021171,32.0
179,1436619021189,32.0
180,1436619021223,32.0
181,1436619021229,32.0
182,1436619021249,32.0
183,1436619021270,32.0
184,1436619021294,32.0
185,1436619021309,32.0
186,1436619021330,32.0
187,1436619021391,32.0
188,1436619021404,32.0
189,1436619021405,32.0
190,1436619021428,32.0
191,1436619021429,32.0
192,1436619021449,32.0
193,1436619021474,32.0
194,1436619021489,32.0
195,1436619021511,32.0
196,1436619021529,32.0
197,1436619021554,32.0
198,1436619021569,31.0
199,1436619021590,31.0
200,1436619021609,31.0
201,1436619021629,31.0
202,1436619021651,31.0
203,1436619021670,31.0
204,1436619021698,32.0
205,1436619021710,32.0
206,1436619021730,32.0
207,1436619021750,33.0
208,1436619021772,33.0
209,1436619021790,35.0
210,1436619021809,35.0
211,1436619021829,36.0
212,1436619021849,36.0
213,1436619021871,37.0
214,1436619021890,37.0
215,1436619021927,39.0
216,1436619021938,39.0
217,1436619021956,40.0
218,1436619021969,40.0
219,1436619021992,41.0
220,1436619022011,41.0
221,1436619022031,42.0
222,1436619022051,42.0
223,1436619022073,42.0
224,1436619022093,42.0
225,1436619022114,42.0
226,1436619022129,41.0
227,1436619022153,41.0
228,1436619022174,41.0
229,1436619022194,41.0
230,1436619022213,40.0
231,1436619022234,40.0
232,1436619022254,39.0
233,1436619022270,39.0
234,1436619022294,38.0
235,1436619022314,38.0
236,1436619022332,36.0
237,1436619022352,35.0
238,1436619022373,35.0
239,1436619022394,34.0
240,1436619022414,34.0
241,1436619022435,32.0
242,1436619022452,32.0
243,1436619022473,31.0
244,1436619022491,31.0
245,1436619022512,30.0
246,1436619022540,30.0
247,1436619022597,29.0
248,1436619022598,29.0
249,1436619022599,28.0
250,1436619022616,26.0
251,1436619022632,26.0
252,1436619022653,25.0
253,1436619022672,25.0
254,1436619022691,24.0
255,1436619022713,24.0
256,1436619022732,23.0
257,1436619022752,23.0
258,1436619022772,22.0
259,1436619022794,22.0
260,1436619022811,22.0
261,1436619022833,22.0
262,1436619022854,21.0
263,1436619022874,21.0
264,1436619022894,21.0
265,1436619022914,21.0
266,1436619022934,21.0
267,1436619022954,21.0
268,1436619022971,21.0
269,1436619023017,22.0
270,1436619023018,22.0
271,1436619023049,22.0
272,1436619023051,22.0
273,1436619023071,22.0
274,1436619023091,22.0
275,1436619023111,22.0
276,1436619023131,22.0
277,1436619023151,23.0
278,1436619023171,23.0
279,1436619023191,23.0
280,1436619023211,24.0
281,1436619023231,24.0
282,1436619023251,24.0
283,1436619023293,24.0
284,1436619023294,24.0
285,1436619023317,24.0
286,1436619023333,25.0
287,1436619023351,25.0
288,1436619023371,25.0
289,1436619023391,25.0
290,1436619023411,26.0
291,1436619023431,26.0
292,1436619023452,28.0
293,1436619023471,29.0
294,1436619023496,29.0
295,1436619023511,30.0
296,1436619023531,30.0
297,1436619023551,31.0
298,1436619023574,31.0
299,1436619023593,31.0
300,1436619023615,31.0
301,1436619023634,32.0
302,1436619023654,32.0
303,1436619023674,32.0
304,1436619023694,32.0
305,1436619023716,32.0
306,1436619023732,33.0
307,1436619023754,33.0
308,1436619023773,34.0
309,1436619023793,34.0
310,1436619023813,34.0
311,1436619023833,34.0
312,1436619023852,34.0
313,1436619023872,34.0
314,1436619023893,34.0
315,1436619023912,34.0
316,1436619023934,34.0
317,1436619023954,34.0
318,1436619023973,35.0
319,1436619023992,35.0
320,1436619024061,36.0
321,1436619024062,37.0
322,1436619024063,37.0
323,1436619024072,38.0
324,1436619024104,38.0
325,1436619024114,40.0
326,1436619024132,40.0
327,1436619024154,43.0
328,1436619024172,43.0
329,1436619024193,45.0
330,1436619024213,45.0
331,1436619024236,47.0
332,1436619024253,47.0
333,1436619024275,50.0
334,1436619024295,50.0
335,1436619024314,52.0
336,1436619024335,53.0
337,1436619024355,53.0
338,1436619024372,53.0
339,1436619024396,53.0
340,1436619024412,54.0
341,1436619024434,54.0
342,1436619024456,55.0
343,1436619024475,55.0
344,1436619024496,56.0
345,1436619024514,56.0
346,1436619024535,57.0
347,1436619024555,57.0
348,1436619024576,57.0
349,1436619024596,58.0
350,1436619024616,58.0
351,1436619024636,58.0
352,1436619024656,58.0
353,1436619024675,58.0
354,1436619024701,58.0
355,1436619024796,59.0
356,1436619024797,59.0
357,1436619024798,58.0
358,1436619024799,58.0
359,1436619024800,58.0
360,1436619024837,58.0
361,1436619024838,57.0
362,1436619024859,57.0
363,1436619024874,56.0
364,1436619024903,54.0
365,1436619024913,54.0
366,1436619024933,53.0
367,1436619024959,53.0
368,1436619024977,53.0
369,1436619024993,53.0
370,1436619025016,54.0
371,1436619025050,54.0
372,1436619025055,55.0
373,1436619025076,55.0
374,1436619025093,57.0
375,1436619025113,57.0
376,1436619025134,59.0
377,1436619025154,61.0
378,1436619025175,61.0
379,1436619025195,63.0
380,1436619025216,63.0
381,1436619025236,67.0
382,1436619025255,67.0
383,1436619025276,70.0
384,1436619025295,70.0
385,1436619025316,72.0
386,1436619025337,72.0
387,1436619025357,76.0
388,1436619025377,76.0
389,1436619025396,77.0
390,1436619025415,77.0
391,1436619025435,78.0
392,1436619025454,78.0
393,1436619025474,78.0
394,1436619025539,79.0
395,1436619025540,79.0
396,1436619025541,81.0
397,1436619025554,81.0
398,1436619025579,83.0
399,1436619025609,83.0
400,1436619025614,85.0
401,1436619025633,85.0
402,1436619025657,86.0
403,1436619025676,86.0
404,1436619025696,86.0
405,1436619025718,86.0
406,1436619025738,86.0
407,1436619025756,86.0
408,1436619025774,86.0
409,1436619025795,86.0
410,1436619025814,86.0
411,1436619025836,85.0
412,1436619025857,85.0
413,1436619025877,85.0
414,1436619025898,85.0
415,1436619025915,86.0
416,1436619025937,86.0
417,1436619025955,86.0
418,1436619025976,86.0
419,1436619025995,87.0
420,1436619026019,88.0
421,1436619026039,88.0
422,1436619026058,90.0
423,1436619026077,90.0
424,1436619026095,91.0
425,1436619026114,91.0
426,1436619026135,92.0
427,1436619026156,92.0
428,1436619026177,94.0
429,1436619026258,94.0
430,1436619026259,97.0
431,1436619026260,97.0
432,1436619026261,100.0
433,1436619026279,105.0
434,1436619026295,105.0
435,1436619026316,109.0
436,1436619026334,109.0
437,1436619026367,112.0
438,1436619026374,112.0
439,1436619026394,116.0
440,1436619026414,116.0
441,1436619026434,119.0
442,1436619026459,119.0
443,1436619026478,119.0
444,1436619026499,119.0
445,1436619026515,118.0
446,1436619026538,118.0
447,1436619026558,116.0
448,1436619026578,115.0
449,1436619026598,115.0
450,1436619026618,114.0
451,1436619026638,114.0
452,1436619026656,113.0
453,1436619026678,113.0
454,1436619026701,111.0
455,1436619026720,111.0
456,1436619026743,109.0
457,1436619026756,109.0
458,1436619026778,106.0
459,1436619026795,106.0
460,1436619026822,104.0
461,1436619026836,104.0
462,1436619026925,101.0
463,1436619026926,99.0
464,1436619026927,99.0
465,1436619026928,94.0
466,1436619027100,94.0
467,1436619027101,92.0
468,1436619027102,92.0
469,1436619027103,90.0
470,1436619027104,90.0
471,1436619027105,90.0
472,1436619027106,90.0
473,1436619027107,89.0
474,1436619027108,89.0
475,1436619027141,89.0
476,1436619027142,89.0
477,1436619027186,89.0
478,1436619027187,88.0
479,1436619027208,88.0
480,1436619027215,89.0
481,1436619027239,89.0
482,1436619027255,90.0
483,1436619027278,90.0
484,1436619027295,92.0
485,1436619027317,92.0
486,1436619027335,95.0
487,1436619027356,95.0
488,1436619027377,100.0
489,1436619027397,100.0
490,1436619027414,107.0
491,1436619027436,113.0
492,1436619027457,113.0
493,1436619027476,119.0
494,1436619027497,119.0
495,1436619027516,126.0
496,1436619027535,126.0
497,1436619027555,129.0
498,1436619027576,129.0
499,1436619027597,131.0
500,1436619027617,131.0
501,1436619027636,132.0
502,1436619027656,132.0
503,1436619027698,133.0
504,1436619027699,134.0
505,1436619027716,134.0
506,1436619027749,135.0
507,1436619027754,135.0
508,1436619027780,136.0
509,1436619027796,136.0
510,1436619027816,138.0
511,1436619027838,138.0
512,1436619027856,139.0
513,1436619027877,139.0
514,1436619027896,140.0
515,1436619027919,140.0
516,1436619027939,141.0
517,1436619027957,141.0
518,1436619027979,141.0
519,1436619027999,141.0
520,1436619028019,141.0
521,1436619028040,140.0
522,1436619028057,140.0
523,1436619028079,139.0
524,1436619028099,139.0
525,1436619028118,137.0
526,1436619028137,137.0
527,1436619028158,136.0
528,1436619028176,136.0
529,1436619028196,136.0
530,1436619028216,136.0
531,1436619028241,137.0
532,1436619028260,138.0
533,1436619028282,138.0
534,1436619028298,139.0
535,1436619028316,139.0
536,1436619028336,141.0
537,1436619028357,141.0
538,1436619028378,142.0
539,1436619028398,142.0
540,1436619028445,142.0
541,1436619028446,142.0
542,1436619028465,142.0
543,1436619028476,142.0
544,1436619028498,143.0
545,1436619028516,143.0
546,1436619028536,143.0
547,1436619028558,143.0
548,1436619028578,143.0
549,1436619028598,145.0
550,1436619028618,145.0
551,1436619028637,147.0
552,1436619028657,147.0
553,1436619028677,150.0
554,1436619028700,150.0
555,1436619028720,153.0
556,1436619028740,153.0
557,1436619028757,155.0
558,1436619028778,155.0
559,1436619028800,158.0
560,1436619028818,158.0
561,1436619028838,163.0
562,1436619028857,169.0
563,1436619028878,169.0
564,1436619028899,176.0
565,1436619028917,176.0
566,1436619028938,180.0
567,1436619028960,180.0
568,1436619028978,182.0
569,1436619029000,182.0
570,1436619029020,183.0
571,1436619029039,183.0
572,1436619029058,184.0
573,1436619029078,184.0
574,1436619029099,185.0
575,1436619029121,185.0
576,1436619029174,185.0
577,1436619029175,184.0
578,1436619029198,184.0
579,1436619029199,184.0
580,1436619029220,184.0
581,1436619029238,184.0
582,1436619029257,184.0
583,1436619029277,185.0
584,1436619029297,185.0
585,1436619029318,186.0
586,1436619029344,186.0
587,1436619029358,187.0
588,1436619029378,187.0
589,1436619029398,188.0
590,1436619029420,191.0
591,1436619029440,191.0
592,1436619029460,198.0
593,1436619029478,198.0
594,1436619029498,205.0
595,1436619029521,205.0
596,1436619029541,215.0
597,1436619029560,215.0
598,1436619029581,225.0
599,1436619029601,225.0
600,1436619029624,232.0
601,1436619029638,232.0
602,1436619029663,236.0
603,1436619029678,234.0
604,1436619029697,234.0
605,1436619029717,230.0
606,1436619029738,230.0
607,1436619029764,225.0
608,1436619029779,225.0
609,1436619029799,224.0
610,1436619029819,224.0
611,1436619029842,226.0
612,1436619029895,226.0
613,1436619029896,226.0
614,1436619029914,226.0
615,1436619029920,225.0
616,1436619029938,225.0
617,1436619029960,224.0
618,1436619029978,223.0
619,1436619029998,223.0
620,1436619030018,225.0
621,1436619030041,225.0
622,1436619030058,229.0
623,1436619030081,229.0
624,1436619030098,228.0
625,1436619030119,228.0
626,1436619030141,221.0
627,1436619030159,221.0
628,1436619030179,218.0
629,1436619030198,218.0
630,1436619030219,219.0
631,1436619030241,226.0
632,1436619030259,226.0
633,1436619030279,234.0
634,1436619030299,234.0
635,1436619030319,241.0
636,1436619030340,241.0
637,1436619030360,247.0
638,1436619030378,247.0
639,1436619030401,251.0
640,1436619030421,251.0
641,1436619030440,254.0
642,1436619030461,254.0
643,1436619030480,254.0
644,1436619030498,254.0
645,1436619030518,255.0
646,1436619030539,257.0
647,1436619030561,257.0
648,1436619030632,259.0
649,1436619030633,259.0
650,1436619030634,266.0
651,1436619030641,266.0
652,1436619030660,269.0
653,1436619030681,269.0
654,1436619030698,271.0
655,1436619030718,271.0
656,1436619030739,272.0
657,1436619030761,272.0
658,1436619030781,275.0
659,1436619030799,277.0
660,1436619030819,277.0
661,1436619030842,278.0
662,1436619030862,278.0
663,1436619030881,279.0
664,1436619030902,279.0
665,1436619030919,280.0
666,1436619030941,280.0
667,1436619030962,283.0
668,1436619030981,283.0
669,1436619031002,289.0
670,1436619031020,289.0
671,1436619031038,296.0
672,1436619031062,296.0
673,1436619031079,303.0
674,1436619031101,307.0
675,1436619031119,307.0
676,1436619031141,311.0
677,1436619031163,311.0
678,1436619031181,314.0
679,1436619031202,314.0
680,1436619031220,319.0
681,1436619031239,319.0
682,1436619031259,322.0
683,1436619031279,322.0
684,1436619031301,321.0
685,1436619031368,321.0
686,1436619031379,322.0
687,1436619031380,322.0
688,1436619031381,324.0
689,1436619031401,326.0
690,1436619031422,326.0
691,1436619031439,325.0
692,1436619031474,325.0
693,1436619031483,319.0
694,1436619031500,319.0
695,1436619031521,311.0
696,1436619031540,311.0
697,1436619031563,305.0
698,1436619031583,305.0
699,1436619031602,300.0
700,1436619031623,300.0
701,1436619031640,295.0
702,1436619031663,290.0
703,1436619031683,290.0
704,1436619031703,286.0
705,1436619031725,286.0
706,1436619031741,282.0
707,1436619031761,282.0
708,1436619031779,281.0
709,1436619031804,281.0
710,1436619031823,280.0
711,1436619031844,280.0
712,1436619031861,280.0
713,1436619031883,280.0
714,1436619031904,281.0
715,1436619031923,281.0
716,1436619031940,285.0
717,1436619031961,291.0
718,1436619032032,291.0
719,1436619032033,300.0
720,1436619032034,300.0
721,1436619032111,312.0
722,1436619032128,312.0
723,1436619032129,321.0
724,1436619032130,321.0
725,1436619032131,325.0
726,1436619032147,325.0
727,1436619032160,330.0
728,1436619032180,330.0
729,1436619032200,334.0
730,1436619032231,337.0
731,1436619032250,337.0
732,1436619032260,340.0
733,1436619032280,340.0
734,1436619032300,342.0
735,1436619032319,342.0
736,1436619032344,343.0
737,1436619032364,343.0
738,1436619032383,343.0
739,1436619032404,343.0
740,1436619032424,340.0
741,1436619032444,340.0
742,1436619032464,338.0
743,1436619032483,338.0
744,1436619032500,335.0
745,1436619032523,333.0
746,1436619032544,333.0
747,1436619032560,329.0
748,1436619032582,329.0
749,1436619032601,322.0
750,1436619032625,322.0
751,1436619032645,315.0
752,1436619032666,315.0
753,1436619032683,313.0
754,1436619032701,313.0
755,1436619032721,316.0
756,1436619032741,316.0
757,1436619032764,320.0
758,1436619032780,323.0
759,1436619032808,323.0
760,1436619032828,324.0
761,1436619032840,324.0
762,1436619032861,324.0
763,1436619032883,324.0
764,1436619032902,325.0
765,1436619032936,325.0
766,1436619032941,326.0
767,1436619032962,326.0
768,1436619032982,327.0
769,1436619033004,327.0
770,1436619033021,329.0
771,1436619033041,329.0
772,1436619033062,332.0
773,1436619033083,336.0
774,1436619033103,336.0
775,1436619033124,341.0
776,1436619033142,341.0
777,1436619033162,348.0
778,1436619033183,348.0
779,1436619033202,354.0
780,1436619033221,354.0
781,1436619033244,359.0
782,1436619033263,359.0
783,1436619033295,363.0
784,1436619033325,363.0
785,1436619033326,368.0
786,1436619033341,368.0
787,1436619033361,372.0
788,1436619033381,376.0
789,1436619033401,376.0
790,1436619033421,377.0
791,1436619033442,377.0
792,1436619033461,377.0
793,1436619033481,377.0
794,1436619033530,375.0
795,1436619033531,375.0
796,1436619033544,372.0
797,1436619033561,372.0
798,1436619033581,366.0
799,1436619033602,366.0
800,1436619033621,358.0
801,1436619033644,351.0
802,1436619033661,351.0
803,1436619033681,347.0
804,1436619033705,347.0
805,1436619033721,344.0
806,1436619033741,344.0
807,1436619033761,341.0
808,1436619033781,341.0
809,1436619033801,336.0
810,1436619033820,336.0
811,1436619033845,332.0
812,1436619033863,332.0
813,1436619033881,328.0
814,1436619033901,328.0
815,1436619033925,325.0
816,1436619033946,324.0
817,1436619033965,324.0
818,1436619033982,324.0
819,1436619034002,324.0
820,1436619034026,325.0
821,1436619034045,325.0
822,1436619034064,326.0
823,1436619034086,326.0
824,1436619034103,328.0
825,1436619034122,328.0
826,1436619034146,331.0
827,1436619034163,331.0
828,1436619034183,334.0
829,1436619034204,338.0
830,1436619034222,338.0
831,1436619034241,342.0
832,1436619034261,342.0
833,1436619034284,345.0
834,1436619034302,345.0
835,1436619034323,347.0
836,1436619034343,347.0
837,1436619034363,350.0
838,1436619034385,350.0
839,1436619034407,354.0
840,1436619034423,354.0
841,1436619034445,358.0
842,1436619034465,358.0
843,1436619034485,360.0
844,1436619034505,360.0
845,1436619034524,360.0
846,1436619034542,359.0
847,1436619034565,359.0
848,1436619034584,357.0
849,1436619034603,357.0
850,1436619034623,355.0
851,1436619034646,355.0
852,1436619034666,355.0
853,1436619034686,355.0
854,1436619034706,354.0
855,1436619034725,354.0
