id,attr_time,attr_x,attr_y,attr_z
1,1436800486871,19.242,-38.002,12.736
2,1436800486872,19.242,-38.002,12.736
3,1436800486873,19.242,-38.002,12.736
4,1436800486874,19.242,-38.002,12.736
5,1436800486893,19.242,-38.002,12.736
6,1436800486915,19.242,-38.002,12.736
7,1436800486931,19.242,-38.002,12.736
8,1436800486951,19.242,-38.002,12.736
9,1436800486973,19.242,-38.002,12.736
10,1436800486992,19.242,-38.002,12.736
11,1436800487013,19.242,-38.002,12.736
12,1436800487033,19.242,-38.002,12.736
13,1436800487057,19.242,-38.002,12.736
14,1436800487075,19.242,-38.002,12.736
15,1436800487093,19.242,-38.002,12.736
16,1436800487115,19.242,-38.002,12.736
17,1436800487134,19.242,-38.002,12.736
18,1436800487153,19.242,-38.002,12.736
19,1436800487175,19.242,-38.002,12.736
20,1436800487193,19.242,-38.002,12.736
21,1436800487215,19.242,-38.002,12.736
22,1436800487235,18.928,-38.002,12.736
23,1436800487254,18.928,-38.002,12.736
24,1436800487276,18.928,-38.002,12.736
25,1436800487295,18.928,-38.002,12.736
26,1436800487316,18.928,-38.002,12.736
27,1436800487336,18.928,-38.002,12.736
28,1436800487356,18.928,-38.002,12.736
29,1436800487374,18.928,-38.002,12.736
30,1436800487392,18.928,-38.002,12.736
31,1436800487412,18.928,-38.002,12.736
32,1436800487433,18.928,-38.31,12.736
33,1436800487457,18.928,-38.31,12.736
34,1436800487477,18.928,-38.31,12.736
35,1436800487497,18.928,-38.31,12.736
36,1436800487516,18.928,-38.31,12.736
37,1436800487535,18.928,-38.31,12.736
38,1436800487612,18.62,-38.31,12.736
39,1436800487613,18.62,-38.31,13.056
40,1436800487614,18.62,-38.31,13.056
41,1436800487615,18.62,-38.31,13.056
42,1436800487633,18.62,-38.31,13.056
43,1436800487655,18.62,-38.31,13.056
44,1436800487672,18.62,-38.31,13.056
45,1436800487692,18.62,-38.31,13.056
46,1436800487714,18.62,-38.31,13.056
47,1436800487734,18.62,-38.31,13.056
48,1436800487753,18.62,-38.31,13.056
49,1436800487772,18.62,-38.31,13.056
50,1436800487797,18.62,-38.31,13.056
51,1436800487816,18.62,-38.31,13.056
52,1436800487835,18.62,-38.31,13.056
53,1436800487855,18.62,-38.31,13.056
54,1436800487876,18.62,-38.31,13.056
55,1436800487895,18.62,-38.31,13.056
56,1436800487915,18.62,-38.31,13.056
57,1436800487936,18.62,-38.31,13.056
58,1436800487955,18.62,-38.31,13.056
59,1436800487975,18.62,-38.31,12.721
60,1436800487994,18.62,-38.31,12.721
61,1436800488013,18.62,-38.31,12.721
62,1436800488036,18.62,-38.31,12.721
63,1436800488052,18.62,-38.31,12.721
64,1436800488073,18.62,-38.31,12.721
65,1436800488092,18.62,-38.31,12.721
66,1436800488116,18.62,-38.31,12.721
67,1436800488139,18.62,-38.31,12.721
68,1436800488155,18.62,-38.31,12.721
69,1436800488176,18.62,-38.31,12.721
70,1436800488194,18.62,-38.31,12.721
71,1436800488212,18.62,-38.31,12.721
72,1436800488233,18.62,-38.31,12.721
73,1436800488254,18.62,-38.31,12.721
74,1436800488275,18.62,-38.31,12.721
75,1436800488346,18.62,-38.31,12.721
76,1436800488347,18.62,-38.31,12.721
77,1436800488348,18.62,-38.31,12.721
78,1436800488357,18.62,-38.31,12.721
79,1436800488374,18.62,-38.31,12.721
80,1436800488394,18.62,-38.31,12.721
81,1436800488412,18.62,-38.31,12.721
82,1436800488438,18.62,-38.31,12.721
83,1436800488454,18.62,-38.31,12.721
84,1436800488474,18.62,-38.31,12.721
85,1436800488495,18.62,-38.31,12.721
86,1436800488513,18.62,-38.31,12.721
87,1436800488535,18.62,-38.31,12.721
88,1436800488556,18.62,-38.31,12.721
89,1436800488576,18.62,-38.31,12.721
90,1436800488596,18.62,-38.31,12.721
91,1436800488615,18.62,-38.31,12.721
92,1436800488636,18.62,-38.31,12.721
93,1436800488656,18.62,-38.31,12.721
94,1436800488676,18.62,-38.31,12.721
95,1436800488696,18.62,-38.31,12.721
96,1436800488716,18.62,-38.31,12.721
97,1436800488734,18.62,-38.31,12.721
98,1436800488754,18.62,-38.31,12.721
99,1436800488776,18.62,-38.31,12.721
100,1436800488793,18.62,-38.31,12.721
101,1436800488813,18.62,-38.31,12.721
102,1436800488833,18.62,-38.31,12.721
103,1436800488856,18.62,-38.31,12.721
104,1436800488876,18.62,-38.31,12.721
105,1436800488896,18.62,-38.31,12.721
106,1436800488916,18.62,-38.31,12.721
107,1436800489095,18.62,-38.31,12.721
108,1436800489096,18.62,-38.31,13.041
109,1436800489097,18.62,-38.31,13.041
110,1436800489098,18.62,-38.31,13.041
111,1436800489099,18.62,-38.31,13.041
112,1436800489100,18.62,-38.31,13.041
113,1436800489101,18.62,-38.31,13.041
114,1436800489102,18.62,-38.31,13.041
115,1436800489103,18.62,-38.31,13.041
116,1436800489187,18.62,-38.31,13.041
117,1436800489188,18.62,-38.31,13.041
118,1436800489189,18.62,-38.31,13.041
119,1436800489190,18.312,-38.31,13.041
120,1436800489214,18.312,-38.31,13.041
121,1436800489215,18.312,-38.31,13.041
122,1436800489233,18.312,-38.31,13.041
123,1436800489253,18.312,-38.31,13.041
124,1436800489273,18.312,-38.31,13.041
125,1436800489295,18.312,-38.31,13.041
126,1436800489313,18.312,-38.31,13.041
127,1436800489336,18.312,-38.31,13.346
128,1436800489358,18.312,-38.31,13.346
129,1436800489374,18.312,-38.31,13.346
130,1436800489394,18.312,-38.31,13.346
131,1436800489413,18.312,-38.31,13.346
132,1436800489434,18.312,-38.31,13.346
133,1436800489454,18.312,-38.31,13.346
134,1436800489474,18.312,-38.31,13.346
135,1436800489494,18.312,-38.31,13.346
136,1436800489525,18.312,-38.31,13.346
137,1436800489534,18.312,-38.31,13.346
138,1436800489552,18.312,-38.31,13.346
139,1436800489572,18.312,-38.31,13.346
140,1436800489598,18.312,-38.31,13.346
141,1436800489615,18.312,-38.31,13.346
142,1436800489632,18.312,-38.31,13.346
143,1436800489655,18.312,-38.31,13.346
144,1436800489675,18.312,-38.31,13.346
145,1436800489693,18.312,-38.31,13.346
146,1436800489716,18.312,-38.31,13.346
147,1436800489733,18.312,-38.31,13.346
148,1436800489753,18.312,-38.31,13.024
149,1436800489775,18.312,-38.31,13.024
150,1436800489792,18.312,-38.31,13.024
151,1436800489814,18.312,-38.31,13.024
152,1436800489835,18.312,-38.31,13.024
153,1436800489855,18.312,-38.31,13.024
154,1436800489874,18.312,-38.31,13.024
155,1436800489898,18.312,-38.31,13.024
156,1436800489918,18.312,-38.31,13.024
157,1436800489937,18.312,-38.31,13.024
158,1436800489957,18.312,-38.31,13.024
159,1436800489978,18.312,-38.31,13.024
160,1436800489998,18.312,-38.31,13.024
161,1436800490018,18.312,-38.31,13.024
162,1436800490039,18.312,-38.31,13.024
163,1436800490055,18.312,-38.31,13.024
164,1436800490078,18.312,-38.31,13.024
165,1436800490096,18.62,-38.31,13.024
166,1436800490117,18.62,-38.31,13.024
167,1436800490138,18.62,-38.31,12.722
168,1436800490156,18.62,-38.31,12.722
169,1436800490174,18.62,-38.31,12.722
170,1436800490196,18.62,-38.31,12.722
171,1436800490220,18.62,-38.31,12.722
172,1436800490240,18.62,-38.31,12.722
173,1436800490260,18.62,-38.31,12.722
174,1436800490278,18.62,-38.31,12.722
175,1436800490295,18.62,-38.31,12.722
176,1436800490316,18.62,-38.31,12.722
177,1436800490337,18.62,-38.31,12.722
178,1436800490365,18.62,-38.31,12.722
179,1436800490440,18.62,-38.31,12.722
180,1436800490441,18.62,-38.31,12.722
181,1436800490442,18.62,-38.31,12.722
182,1436800490443,18.62,-38.31,12.722
183,1436800490472,18.62,-38.31,12.722
184,1436800490476,18.62,-38.31,12.722
185,1436800490502,18.62,-38.31,12.722
186,1436800490516,18.62,-38.31,12.722
187,1436800490547,18.62,-38.31,12.722
188,1436800490555,18.62,-38.31,12.722
189,1436800490575,18.62,-38.31,12.722
190,1436800490601,18.62,-38.31,12.722
191,1436800490620,18.62,-38.31,12.722
192,1436800490636,18.62,-38.31,12.722
193,1436800490670,18.62,-38.31,12.722
194,1436800490697,18.62,-38.31,12.722
195,1436800490698,18.62,-38.31,12.722
196,1436800490716,18.62,-38.31,12.722
197,1436800490735,18.62,-38.31,12.722
198,1436800490755,18.62,-38.31,12.722
199,1436800490775,18.62,-38.31,12.722
200,1436800490795,18.62,-38.31,12.722
201,1436800490816,18.62,-38.31,12.722
202,1436800490835,18.62,-38.31,12.722
203,1436800490855,18.62,-38.31,12.722
204,1436800490875,18.62,-38.31,12.722
205,1436800490895,18.62,-38.31,12.722
206,1436800490916,18.62,-38.31,12.722
207,1436800490935,18.62,-38.31,12.722
208,1436800490955,18.62,-38.31,12.722
209,1436800490975,18.62,-38.31,13.041
210,1436800490995,18.62,-38.31,13.041
211,1436800491016,18.62,-38.31,13.041
212,1436800491037,18.62,-38.31,13.041
213,1436800491056,18.62,-38.31,13.041
214,1436800491076,18.62,-38.31,13.041
215,1436800491097,18.62,-38.31,13.041
216,1436800491121,18.62,-38.31,13.041
217,1436800491134,18.62,-38.31,13.041
218,1436800491155,18.62,-38.31,13.041
219,1436800491174,18.62,-38.31,13.041
220,1436800491195,18.62,-38.31,13.041
221,1436800491216,18.62,-38.31,13.041
222,1436800491235,18.62,-38.31,13.041
223,1436800491255,18.62,-38.31,13.041
224,1436800491279,18.62,-38.31,13.041
225,1436800491299,18.62,-38.31,13.041
226,1436800491316,18.62,-38.31,13.041
227,1436800491335,18.62,-38.31,13.041
228,1436800491359,18.62,-38.31,13.041
229,1436800491379,18.62,-38.31,13.041
230,1436800491399,18.62,-38.31,13.041
231,1436800491419,18.62,-38.31,13.041
232,1436800491439,18.62,-38.31,13.041
233,1436800491459,18.62,-38.31,13.041
234,1436800491475,18.62,-38.31,13.041
235,1436800491499,18.62,-38.31,13.041
236,1436800491518,18.62,-38.31,13.041
237,1436800491540,18.62,-38.31,13.041
238,1436800491556,18.62,-38.31,13.041
239,1436800491579,18.62,-38.31,13.041
240,1436800491600,18.62,-38.31,13.041
241,1436800491618,18.62,-38.31,13.041
242,1436800491639,18.62,-38.31,13.041
243,1436800491659,18.62,-38.31,12.716
244,1436800491679,18.62,-38.31,12.716
245,1436800491699,18.62,-38.31,12.716
246,1436800491719,18.62,-38.31,12.716
247,1436800491745,18.62,-38.31,12.716
248,1436800491820,18.62,-38.31,12.716
249,1436800491821,18.62,-38.31,12.716
250,1436800491822,18.62,-38.31,12.716
251,1436800491823,18.62,-38.31,12.716
252,1436800491839,18.62,-38.31,12.716
253,1436800491860,18.62,-38.31,12.716
254,1436800491876,18.62,-38.31,12.716
255,1436800491904,18.62,-38.31,12.716
256,1436800491917,18.62,-38.31,12.716
257,1436800491937,18.62,-38.31,12.716
258,1436800491964,18.62,-38.31,12.716
259,1436800491977,18.62,-38.31,12.716
260,1436800491999,18.62,-38.31,12.716
261,1436800492019,18.62,-38.31,12.716
262,1436800492037,18.62,-38.31,12.716
263,1436800492059,18.62,-38.31,12.716
264,1436800492080,18.62,-38.31,12.716
265,1436800492100,18.62,-38.31,12.716
266,1436800492120,18.62,-38.31,12.716
267,1436800492140,18.62,-38.31,12.716
268,1436800492160,18.62,-38.31,12.716
269,1436800492180,18.62,-38.31,12.716
270,1436800492198,18.62,-38.31,12.716
271,1436800492220,18.62,-38.31,12.716
272,1436800492236,18.62,-38.31,12.716
273,1436800492257,18.62,-38.31,12.716
274,1436800492279,18.62,-38.31,12.716
275,1436800492298,18.62,-38.31,12.716
276,1436800492320,18.62,-38.31,12.716
277,1436800492340,18.62,-38.31,12.716
278,1436800492367,18.62,-38.31,12.716
279,1436800492379,18.62,-38.31,12.716
280,1436800492399,18.62,-38.31,12.716
281,1436800492418,18.62,-38.31,12.716
282,1436800492438,18.62,-38.31,12.716
283,1436800492466,18.62,-38.31,12.716
284,1436800492478,18.62,-38.31,12.716
285,1436800492528,18.62,-38.31,12.716
286,1436800492529,18.62,-38.31,12.716
287,1436800492544,18.62,-38.31,12.716
288,1436800492557,18.62,-38.31,12.716
289,1436800492577,18.62,-38.31,12.716
290,1436800492598,18.62,-38.31,12.716
291,1436800492619,18.62,-38.31,12.716
292,1436800492638,18.62,-38.31,12.716
293,1436800492657,18.62,-38.31,12.716
294,1436800492681,18.62,-38.31,12.716
295,1436800492698,18.62,-38.31,12.716
296,1436800492718,18.62,-38.31,12.716
297,1436800492737,18.62,-38.31,12.716
298,1436800492760,18.62,-38.31,12.716
299,1436800492780,18.62,-38.31,12.716
300,1436800492801,18.62,-38.31,12.716
301,1436800492820,18.62,-38.31,12.716
302,1436800492840,18.62,-38.31,12.716
303,1436800492860,18.62,-38.31,12.716
304,1436800492880,18.62,-38.31,12.716
305,1436800492907,18.62,-38.31,12.716
306,1436800492931,18.62,-38.31,12.716
307,1436800492937,18.62,-38.31,12.716
308,1436800492957,18.62,-38.31,12.716
309,1436800492977,18.62,-38.31,12.716
310,1436800493017,18.62,-38.31,12.716
311,1436800493018,18.62,-38.31,12.716
312,1436800493049,18.62,-38.31,12.716
313,1436800493060,18.62,-38.31,12.716
314,1436800493080,18.62,-38.31,12.716
315,1436800493097,18.62,-38.31,12.716
316,1436800493118,18.62,-38.31,12.716
317,1436800493141,18.62,-38.31,13.017
318,1436800493159,18.62,-38.31,13.017
319,1436800493246,18.62,-38.31,13.017
320,1436800493247,18.62,-38.31,13.017
321,1436800493248,18.62,-38.31,13.017
322,1436800493249,18.62,-38.31,13.017
323,1436800493283,18.62,-38.31,13.017
324,1436800493284,18.62,-38.31,13.017
325,1436800493299,18.62,-38.31,13.017
326,1436800493317,18.62,-38.31,13.017
327,1436800493339,18.62,-38.31,13.017
328,1436800493359,18.62,-38.31,13.017
329,1436800493380,18.295,-38.31,13.323
330,1436800493399,18.295,-38.31,13.323
331,1436800493419,18.295,-38.31,13.323
332,1436800493438,18.295,-38.31,13.323
333,1436800493460,18.295,-38.31,13.323
334,1436800493481,18.295,-38.31,13.323
335,1436800493501,18.295,-38.31,13.323
336,1436800493521,18.295,-38.31,13.323
337,1436800493541,18.295,-38.31,13.323
338,1436800493560,18.295,-38.31,13.323
339,1436800493581,18.295,-38.31,13.323
340,1436800493601,18.295,-38.31,13.323
341,1436800493620,18.295,-38.31,13.323
342,1436800493640,18.295,-38.31,13.323
343,1436800493662,18.295,-38.31,13.323
344,1436800493679,18.295,-38.31,13.323
345,1436800493701,18.295,-38.31,13.323
346,1436800493722,18.295,-38.31,13.012
347,1436800493741,18.295,-38.31,13.012
348,1436800493761,18.295,-38.31,13.012
349,1436800493781,18.621,-38.31,13.012
350,1436800493801,18.621,-38.31,13.012
351,1436800493821,18.621,-38.31,13.012
352,1436800493840,18.621,-38.31,13.012
353,1436800493862,18.621,-38.31,12.702
354,1436800493882,18.621,-38.31,12.702
355,1436800493902,18.621,-38.31,12.702
356,1436800493921,18.621,-38.31,12.702
357,1436800493944,18.621,-38.31,12.702
358,1436800494019,18.621,-38.31,12.702
359,1436800494020,18.621,-38.31,12.702
360,1436800494021,18.621,-38.31,12.702
361,1436800494022,18.621,-38.31,12.702
362,1436800494038,18.621,-38.31,12.702
363,1436800494059,18.621,-38.31,12.702
364,1436800494078,18.621,-38.31,12.702
365,1436800494098,18.621,-38.31,12.702
366,1436800494120,18.621,-38.31,12.702
367,1436800494143,18.621,-38.31,12.702
368,1436800494167,18.621,-38.31,12.702
369,1436800494180,18.621,-38.31,12.702
370,1436800494203,18.621,-38.31,12.702
371,1436800494219,18.621,-38.31,12.702
372,1436800494239,18.621,-38.31,12.702
373,1436800494261,18.621,-38.31,12.702
374,1436800494281,18.621,-38.31,12.702
375,1436800494301,18.621,-38.31,12.702
376,1436800494321,18.621,-38.31,12.702
377,1436800494355,18.621,-38.31,12.702
378,1436800494379,18.621,-38.31,12.702
379,1436800494380,18.621,-38.31,12.702
380,1436800494398,18.621,-38.31,12.702
381,1436800494419,18.621,-38.31,12.702
382,1436800494438,18.621,-38.31,12.702
383,1436800494459,18.621,-38.31,12.702
384,1436800494479,18.621,-38.31,12.702
385,1436800494499,18.621,-38.31,12.702
386,1436800494536,18.621,-38.31,12.702
387,1436800494538,18.621,-38.31,12.702
388,1436800494563,18.621,-38.31,12.702
389,1436800494579,18.621,-38.31,12.702
390,1436800494599,18.621,-38.31,12.702
391,1436800494619,18.621,-38.31,12.702
392,1436800494648,18.621,-38.31,13.012
393,1436800494707,18.621,-38.31,13.012
394,1436800494708,18.621,-38.31,13.012
395,1436800494709,18.621,-38.31,13.012
396,1436800494726,18.621,-38.31,13.012
397,1436800494742,18.621,-38.31,13.012
398,1436800494760,18.621,-38.31,13.012
399,1436800494779,18.621,-38.31,13.012
400,1436800494800,18.621,-38.31,13.012
401,1436800494819,18.621,-38.31,13.012
402,1436800494868,18.621,-38.31,13.012
403,1436800494869,18.621,-38.31,13.012
404,1436800494880,18.621,-38.31,13.012
405,1436800494899,18.621,-38.31,13.012
406,1436800494919,18.621,-38.31,13.012
407,1436800494939,18.621,-38.31,13.012
408,1436800494960,18.621,-38.31,13.012
409,1436800494979,18.621,-38.31,13.012
410,1436800495000,18.621,-38.31,13.012
411,1436800495022,18.621,-38.31,13.012
412,1436800495039,18.621,-38.31,13.012
413,1436800495059,18.621,-38.31,13.012
414,1436800495078,18.621,-38.31,13.012
415,1436800495098,18.269,-38.31,13.345
416,1436800495118,18.269,-38.31,13.345
417,1436800495139,18.269,-38.31,13.345
418,1436800495159,18.269,-38.31,13.735
419,1436800495179,17.938,-38.31,13.735
420,1436800495199,17.938,-38.31,13.735
421,1436800495219,17.938,-38.31,14.12
422,1436800495239,17.938,-38.31,14.12
423,1436800495259,17.938,-38.31,14.12
424,1436800495279,17.601,-38.31,14.471
425,1436800495298,17.601,-38.31,14.471
426,1436800495319,17.601,-38.31,14.471
427,1436800495339,17.601,-38.31,14.836
428,1436800495360,17.601,-38.31,14.836
429,1436800495378,17.268,-38.31,14.836
430,1436800495404,17.268,-38.31,15.205
431,1436800495419,17.268,-37.991,15.205
432,1436800495439,17.268,-37.991,15.205
433,1436800495458,16.954,-37.991,15.524
434,1436800495479,16.954,-37.991,15.524
435,1436800495499,16.954,-37.991,15.524
436,1436800495518,16.954,-37.991,15.524
437,1436800495540,16.592,-37.991,15.524
438,1436800495559,16.592,-37.991,15.892
439,1436800495580,16.592,-37.991,15.892
440,1436800495602,16.192,-37.991,15.892
441,1436800495619,16.192,-37.991,16.21
442,1436800495640,15.35,-37.991,16.21
443,1436800495660,14.097,-37.991,16.21
444,1436800495680,12.959,-37.991,16.619
445,1436800495703,11.616,-37.991,16.619
446,1436800495723,10.241,-37.991,17.036
447,1436800495740,8.941,-38.333,18.141
448,1436800495761,6.838,-38.333,19.552
449,1436800495783,5.441,-38.333,20.059
450,1436800495800,3.262,-38.333,21.156
451,1436800495823,0.323,-38.333,21.73
452,1436800495841,-2.911,-38.333,23.1
453,1436800495861,-5.763,-38.333,23.617
454,1436800495882,-8.071,-38.333,25.233
455,1436800495902,-9.603,-38.333,25.895
456,1436800495923,-10.725,-37.969,25.895
457,1436800495943,-12.275,-37.336,25.895
458,1436800495961,-13.14,-37.336,24.868
459,1436800495981,-13.14,-37.336,24.44
460,1436800496000,-11.799,-37.336,23.913
461,1436800496047,-9.101,-37.76,23.329
462,1436800496048,-5.43,-38.185,23.329
463,1436800496067,-1.571,-38.185,22.041
464,1436800496080,2.349,-38.504,20.982
465,1436800496100,6.658,-38.504,19.297
466,1436800496120,11.883,-38.504,16.032
467,1436800496142,16.326,-38.504,12.583
468,1436800496161,20.532,-37.913,9.474
469,1436800496182,24.429,-37.429,4.968
470,1436800496200,26.817,-37.013,0.096
471,1436800496224,27.81,-36.483,-4.428
472,1436800496241,27.81,-36.483,-8.676
473,1436800496261,26.849,-36.483,-10.708
474,1436800496281,25.105,-37.019,-11.355
475,1436800496303,23.611,-37.582,-9.977
476,1436800496323,23.028,-37.924,-8.242
477,1436800496343,22.242,-37.924,-6.991
478,1436800496360,21.64,-38.473,-6.658
479,1436800496381,21.64,-38.792,-5.242
480,1436800496403,21.64,-38.792,-3.744
481,1436800496423,21.64,-38.792,-3.047
482,1436800496443,21.028,-39.196,-2.505
483,1436800496461,20.681,-39.196,-1.484
484,1436800496483,20.08,-39.537,-0.657
485,1436800496503,20.08,-39.537,0.202
486,1436800496523,20.08,-39.862,0.202
487,1436800496542,20.658,-39.862,1.499
488,1436800496561,20.217,-39.862,1.499
489,1436800496583,20.217,-39.862,1.499
490,1436800496603,20.217,-39.862,1.499
491,1436800496623,20.217,-39.862,1.499
492,1436800496641,19.841,-39.862,2.493
493,1436800496662,19.841,-39.862,2.493
494,1436800496682,20.205,-39.862,2.874
495,1436800496701,20.205,-40.316,3.269
496,1436800496722,20.205,-40.316,3.269
497,1436800496741,19.889,-40.316,3.269
498,1436800496786,19.889,-40.62,2.957
499,1436800496787,19.505,-40.62,2.957
500,1436800496809,19.505,-40.62,3.765
501,1436800496821,19.039,-40.62,3.765
502,1436800496843,19.039,-40.62,3.765
503,1436800496862,18.643,-40.994,3.421
504,1436800496880,18.643,-40.994,3.421
505,1436800496903,17.848,-40.994,3.421
506,1436800496921,17.054,-40.994,3.421
507,1436800496943,15.928,-41.351,3.421
508,1436800496962,14.988,-41.351,3.421
509,1436800496984,13.882,-41.351,3.839
510,1436800497001,13.291,-41.78,3.839
511,1436800497024,12.721,-41.78,3.839
512,1436800497043,12.721,-42.108,3.839
513,1436800497062,12.721,-42.108,3.839
514,1436800497084,12.721,-42.535,3.276
515,1436800497103,12.324,-42.988,0.749
516,1436800497124,12.324,-42.988,-1.358
517,1436800497142,11.814,-42.988,-2.513
518,1436800497164,11.814,-43.357,-3.396
519,1436800497184,11.491,-43.357,-4.273
