id,attr_time,attr_x,attr_y,attr_z
1,1436800486859,45.788,-8.975,2.709
2,1436800486878,45.788,-8.975,2.709
3,1436800486898,45.788,-8.975,2.709
4,1436800486925,45.788,-8.975,2.709
5,1436800486942,45.788,-8.975,2.709
6,1436800486958,45.788,-8.975,2.709
7,1436800486977,45.788,-8.975,2.709
8,1436800486997,45.788,-8.975,2.709
9,1436800487023,45.471,-8.975,2.709
10,1436800487042,45.471,-8.975,2.709
11,1436800487058,45.471,-8.975,2.394
12,1436800487082,45.471,-8.975,2.394
13,1436800487102,45.471,-8.975,2.394
14,1436800487123,45.471,-8.975,2.394
15,1436800487137,45.471,-9.309,2.394
16,1436800487184,45.471,-9.309,2.394
17,1436800487185,45.471,-9.309,2.394
18,1436800487202,45.783,-9.309,2.394
19,1436800487223,45.783,-9.309,2.394
20,1436800487243,45.783,-9.309,2.394
21,1436800487259,45.783,-9.609,2.394
22,1436800487281,45.783,-9.609,2.394
23,1436800487303,45.783,-9.609,2.394
24,1436800487324,45.783,-9.609,2.394
25,1436800487344,45.783,-9.609,2.394
26,1436800487358,45.783,-9.609,2.394
27,1436800487382,45.783,-9.609,2.394
28,1436800487399,45.783,-9.609,2.394
29,1436800487418,45.783,-9.609,2.394
30,1436800487438,45.783,-9.609,2.394
31,1436800487463,45.783,-9.609,2.394
32,1436800487484,45.783,-9.609,2.394
33,1436800487505,45.783,-9.609,2.394
34,1436800487521,45.783,-9.609,2.394
35,1436800487539,45.783,-9.3,2.394
36,1436800487575,45.783,-9.3,2.394
37,1436800487579,45.783,-9.3,2.394
38,1436800487598,45.783,-9.3,2.394
39,1436800487619,45.783,-9.3,2.394
40,1436800487644,45.783,-9.3,2.394
41,1436800487662,45.783,-9.3,2.394
42,1436800487680,45.783,-9.3,2.394
43,1436800487701,45.783,-9.3,2.394
44,1436800487725,45.783,-9.3,2.394
45,1436800487742,45.783,-9.3,2.394
46,1436800487760,45.783,-9.3,2.394
47,1436800487784,45.783,-9.3,2.394
48,1436800487799,46.124,-9.3,2.7
49,1436800487823,46.124,-9.3,2.7
50,1436800487842,46.124,-9.3,2.7
51,1436800487862,46.124,-9.3,2.7
52,1436800487882,46.124,-9.3,2.7
53,1436800487903,46.124,-9.3,2.7
54,1436800487923,46.124,-9.3,2.7
55,1436800487943,46.124,-9.3,2.7
56,1436800487961,46.124,-9.3,2.7
57,1436800487983,46.124,-8.984,2.7
58,1436800488003,46.124,-8.984,2.7
59,1436800488020,46.124,-8.984,2.7
60,1436800488042,46.124,-8.984,2.7
61,1436800488063,46.124,-8.984,2.7
62,1436800488084,46.124,-8.984,2.7
63,1436800488104,46.124,-8.984,2.7
64,1436800488124,46.124,-8.984,2.7
65,1436800488142,46.124,-8.984,2.7
66,1436800488161,46.124,-8.984,2.7
67,1436800488179,46.124,-8.984,2.7
68,1436800488203,46.124,-8.984,2.7
69,1436800488220,46.124,-8.666,2.7
70,1436800488243,46.124,-8.666,2.7
71,1436800488294,46.124,-8.666,2.7
72,1436800488295,46.124,-8.666,2.7
73,1436800488309,46.124,-8.666,2.7
74,1436800488320,46.124,-8.666,2.7
75,1436800488343,46.124,-8.666,2.7
76,1436800488362,46.124,-8.666,2.7
77,1436800488381,46.124,-8.666,2.7
78,1436800488401,45.822,-8.666,2.7
79,1436800488420,45.822,-8.666,2.7
80,1436800488443,45.822,-8.666,2.7
81,1436800488465,45.822,-8.666,2.7
82,1436800488482,45.822,-8.666,2.7
83,1436800488500,45.822,-8.666,2.7
84,1436800488523,45.822,-8.666,2.7
85,1436800488543,45.822,-8.666,2.7
86,1436800488563,45.822,-8.666,2.7
87,1436800488584,45.822,-8.666,2.7
88,1436800488603,45.822,-8.666,2.7
89,1436800488623,45.822,-8.666,2.7
90,1436800488643,45.822,-8.666,2.7
91,1436800488667,45.822,-8.666,2.7
92,1436800488686,45.822,-8.666,2.7
93,1436800488702,45.822,-8.666,2.7
94,1436800488724,45.822,-8.666,2.7
95,1436800488743,45.822,-8.666,2.7
96,1436800488763,45.822,-8.666,2.7
97,1436800488782,45.822,-8.666,2.7
98,1436800488804,45.822,-8.666,2.7
99,1436800488824,45.822,-8.666,2.7
100,1436800488843,45.822,-8.666,2.7
101,1436800488864,45.822,-8.666,2.7
102,1436800488883,45.822,-8.666,2.7
103,1436800488903,45.822,-8.666,2.7
104,1436800488923,45.822,-8.666,2.7
105,1436800488943,45.822,-8.666,2.7
106,1436800488962,45.822,-8.666,2.7
107,1436800489031,45.822,-8.666,2.7
108,1436800489032,45.822,-8.666,2.7
109,1436800489033,45.822,-8.666,2.7
110,1436800489043,45.822,-8.666,2.7
111,1436800489070,45.822,-8.666,2.7
112,1436800489111,45.822,-8.666,2.7
113,1436800489112,45.822,-8.666,2.7
114,1436800489133,45.822,-8.666,2.7
115,1436800489142,45.822,-8.666,2.7
116,1436800489167,45.822,-8.666,2.7
117,1436800489181,45.822,-8.666,2.7
118,1436800489201,45.822,-8.666,2.7
119,1436800489221,45.822,-8.666,2.7
120,1436800489245,45.822,-8.354,2.7
121,1436800489262,45.822,-8.354,2.7
122,1436800489284,45.822,-8.354,2.7
123,1436800489304,45.822,-8.354,2.7
124,1436800489324,45.822,-8.354,2.7
125,1436800489343,45.822,-8.354,2.7
126,1436800489364,45.822,-8.03,2.7
127,1436800489384,45.822,-8.03,2.7
128,1436800489403,45.822,-8.03,2.7
129,1436800489423,45.822,-8.03,2.7
130,1436800489444,45.822,-8.03,3.036
131,1436800489461,45.822,-8.03,3.036
132,1436800489481,45.822,-7.723,3.036
133,1436800489502,45.822,-7.723,3.036
134,1436800489526,45.822,-7.723,3.036
135,1436800489542,45.822,-7.723,3.036
136,1436800489574,45.822,-7.723,3.036
137,1436800489581,46.148,-7.723,3.036
138,1436800489601,46.148,-7.723,3.036
139,1436800489638,46.148,-7.723,3.036
140,1436800489807,46.148,-7.723,3.036
141,1436800489808,46.148,-7.723,3.036
142,1436800489809,46.148,-7.723,3.036
143,1436800489810,46.148,-7.723,3.036
144,1436800489811,46.148,-7.723,3.036
145,1436800489812,46.148,-7.723,3.036
146,1436800489813,46.148,-7.723,3.036
147,1436800489814,46.148,-7.723,3.344
148,1436800489815,46.148,-7.723,3.344
149,1436800489853,46.148,-7.723,3.344
150,1436800489854,46.148,-7.723,3.344
151,1436800489861,46.148,-7.723,3.344
152,1436800489881,46.148,-7.723,3.344
153,1436800489902,46.148,-7.723,3.344
154,1436800489946,46.148,-7.723,3.344
155,1436800489947,46.148,-7.723,3.344
156,1436800489964,46.148,-7.723,3.344
157,1436800489989,46.148,-7.723,3.344
158,1436800490002,46.148,-7.723,3.344
159,1436800490023,45.767,-7.723,3.344
160,1436800490045,45.767,-7.723,3.344
161,1436800490064,45.767,-7.723,3.344
162,1436800490083,45.767,-7.723,3.344
163,1436800490102,45.767,-7.723,3.009
164,1436800490123,45.767,-7.723,3.009
165,1436800490144,45.767,-7.406,3.009
166,1436800490164,45.767,-7.406,3.009
167,1436800490185,45.422,-7.406,3.009
168,1436800490208,45.422,-7.406,3.009
169,1436800490225,45.422,-7.406,3.009
170,1436800490244,45.422,-7.406,3.009
171,1436800490261,45.422,-7.406,3.009
172,1436800490282,45.422,-7.406,3.009
173,1436800490302,45.422,-7.406,3.009
174,1436800490328,45.422,-7.406,2.705
175,1436800490348,45.422,-7.406,2.705
176,1436800490368,45.422,-7.406,2.705
177,1436800490385,45.422,-7.406,2.705
178,1436800490402,45.838,-7.406,2.705
179,1436800490422,45.838,-7.78,2.705
180,1436800490442,45.838,-7.78,2.705
181,1436800490463,45.838,-7.78,2.705
182,1436800490487,46.151,-7.78,2.705
183,1436800490537,46.151,-7.78,2.705
184,1436800490551,46.151,-7.78,2.705
185,1436800490552,46.151,-7.78,2.705
186,1436800490562,46.151,-7.78,2.705
187,1436800490582,46.151,-7.78,2.705
188,1436800490603,46.495,-7.78,2.705
189,1436800490622,46.495,-7.78,2.705
190,1436800490647,46.495,-7.78,2.705
191,1436800490670,46.495,-7.78,2.705
192,1436800490683,46.495,-7.78,2.705
193,1436800490706,46.495,-8.103,2.705
194,1436800490725,46.495,-8.103,2.705
195,1436800490753,46.495,-8.103,2.705
196,1436800490767,46.495,-8.103,2.705
197,1436800490792,46.495,-8.103,2.365
198,1436800490804,46.495,-8.103,2.365
199,1436800490823,46.495,-8.103,2.365
200,1436800490900,46.495,-8.103,2.365
201,1436800490902,46.495,-8.103,2.365
202,1436800490903,46.495,-8.103,2.365
203,1436800490904,46.495,-8.103,2.365
204,1436800490922,46.495,-8.103,2.365
205,1436800490948,46.495,-8.103,2.365
206,1436800490962,46.495,-8.103,2.365
207,1436800490982,46.495,-8.103,2.365
208,1436800491004,46.495,-8.103,2.365
209,1436800491029,46.495,-8.103,2.365
210,1436800491049,46.495,-8.103,2.365
211,1436800491067,46.495,-8.103,2.365
212,1436800491084,46.495,-8.103,2.365
213,1436800491104,46.495,-8.103,2.365
214,1436800491124,46.495,-8.103,2.365
215,1436800491147,46.495,-8.103,2.365
216,1436800491164,46.495,-8.103,2.365
217,1436800491182,46.495,-8.103,2.365
218,1436800491203,46.495,-8.103,2.365
219,1436800491222,46.162,-8.103,2.365
220,1436800491251,46.162,-8.103,2.365
221,1436800491265,46.162,-8.103,2.365
222,1436800491283,46.162,-8.103,2.365
223,1436800491302,45.806,-8.103,2.365
224,1436800491325,45.806,-8.103,2.365
225,1436800491346,45.806,-8.103,2.365
226,1436800491363,45.806,-8.103,2.365
227,1436800491383,45.474,-8.103,2.365
228,1436800491406,45.474,-8.103,2.049
229,1436800491426,45.474,-8.103,2.049
230,1436800491446,45.474,-8.103,2.049
231,1436800491463,45.474,-7.769,2.049
232,1436800491486,45.474,-7.769,2.049
233,1436800491507,45.169,-7.769,2.049
234,1436800491523,45.169,-7.769,2.049
235,1436800491542,45.169,-7.769,2.049
236,1436800491563,45.169,-7.769,2.049
237,1436800491583,45.169,-7.769,2.049
238,1436800491603,45.169,-7.769,2.049
239,1436800491625,45.169,-7.769,2.049
240,1436800491644,45.169,-7.769,2.049
241,1436800491665,45.169,-7.769,2.049
242,1436800491684,45.169,-7.769,2.049
243,1436800491704,45.169,-7.769,2.049
244,1436800491728,45.169,-7.769,2.049
245,1436800491748,45.169,-7.769,2.049
246,1436800491769,45.169,-7.769,2.049
247,1436800491786,45.169,-7.769,2.049
248,1436800491804,45.169,-7.769,2.049
249,1436800491824,45.169,-7.769,2.049
250,1436800491843,45.169,-7.769,1.728
251,1436800491864,45.169,-7.769,1.728
252,1436800491883,45.169,-8.122,1.728
253,1436800491955,45.169,-8.122,1.728
254,1436800491956,45.169,-8.122,1.728
255,1436800491957,45.169,-8.122,1.728
256,1436800491963,45.169,-8.122,1.728
257,1436800491983,45.512,-8.122,1.728
258,1436800492004,45.512,-8.122,1.728
259,1436800492023,45.512,-8.122,1.728
260,1436800492045,45.512,-8.435,1.728
261,1436800492063,45.512,-8.435,1.728
262,1436800492085,45.512,-8.435,1.728
263,1436800492108,45.512,-8.435,1.728
264,1436800492124,45.869,-8.435,1.728
265,1436800492150,45.869,-8.435,1.728
266,1436800492165,45.869,-8.435,1.728
267,1436800492187,45.869,-8.435,1.728
268,1436800492206,45.869,-8.435,1.728
269,1436800492227,45.869,-8.435,1.728
270,1436800492244,45.869,-8.435,1.728
271,1436800492265,45.869,-8.435,1.728
272,1436800492287,45.869,-8.435,1.728
273,1436800492306,45.869,-8.435,1.728
274,1436800492326,45.869,-8.435,1.728
275,1436800492344,45.869,-8.435,1.728
276,1436800492366,45.869,-8.435,1.728
277,1436800492389,45.869,-8.435,1.728
278,1436800492404,45.869,-8.435,1.728
279,1436800492425,45.869,-8.435,1.728
280,1436800492447,45.869,-8.435,1.728
281,1436800492467,45.869,-8.435,2.047
282,1436800492488,45.869,-8.435,2.047
283,1436800492508,45.869,-8.435,2.047
284,1436800492527,45.869,-8.435,2.047
285,1436800492547,45.869,-8.435,2.047
286,1436800492577,45.869,-8.435,2.047
287,1436800492584,45.869,-8.435,2.047
288,1436800492604,45.869,-8.435,2.047
289,1436800492624,45.869,-8.435,2.047
290,1436800492675,45.869,-8.435,2.047
291,1436800492676,45.869,-8.738,2.047
292,1436800492685,45.869,-8.738,2.047
293,1436800492704,45.869,-8.738,2.047
294,1436800492724,45.869,-8.738,2.368
295,1436800492744,46.191,-8.738,2.368
296,1436800492766,46.191,-8.738,2.368
297,1436800492784,46.191,-9.072,2.368
298,1436800492804,46.191,-9.072,2.368
299,1436800492825,46.191,-9.072,2.368
300,1436800492844,46.191,-9.072,2.368
301,1436800492864,46.191,-9.072,2.368
302,1436800492885,46.191,-9.072,2.368
303,1436800492905,46.191,-9.072,2.368
304,1436800492926,46.191,-9.072,2.368
305,1436800492948,46.191,-9.072,2.368
306,1436800492968,46.191,-9.072,2.368
307,1436800492988,46.191,-9.072,2.368
308,1436800493004,46.191,-9.072,2.368
309,1436800493026,46.191,-9.072,2.368
310,1436800493048,46.191,-9.072,2.368
311,1436800493067,46.191,-9.072,2.368
312,1436800493085,46.513,-9.072,2.368
313,1436800493105,46.513,-9.072,2.368
314,1436800493125,46.513,-9.072,2.368
315,1436800493145,46.513,-9.072,2.368
316,1436800493165,46.513,-9.072,2.368
317,1436800493186,46.513,-9.072,2.368
318,1436800493211,46.513,-9.072,2.368
319,1436800493226,46.513,-9.072,2.368
320,1436800493248,46.513,-8.772,2.368
321,1436800493266,46.168,-8.772,2.368
322,1436800493285,46.168,-8.772,2.368
323,1436800493307,46.168,-8.772,2.368
324,1436800493326,46.168,-8.772,2.368
325,1436800493345,46.168,-8.772,2.05
326,1436800493398,46.168,-8.772,2.05
327,1436800493401,45.843,-8.43,2.05
328,1436800493417,45.843,-8.43,2.05
329,1436800493425,45.843,-8.43,2.05
330,1436800493445,45.843,-8.43,2.05
331,1436800493468,45.843,-8.43,2.05
332,1436800493485,45.843,-8.43,2.05
333,1436800493505,45.843,-8.43,2.05
334,1436800493526,45.843,-8.43,2.05
335,1436800493547,45.843,-8.43,2.05
336,1436800493566,45.843,-8.43,2.05
337,1436800493588,45.843,-8.43,2.05
338,1436800493605,45.843,-8.43,2.05
339,1436800493626,45.843,-8.43,2.05
340,1436800493648,45.843,-8.43,2.05
341,1436800493668,45.843,-8.43,2.05
342,1436800493688,46.221,-8.43,2.05
343,1436800493708,46.221,-8.775,2.05
344,1436800493725,46.221,-8.775,2.05
345,1436800493746,46.221,-8.775,2.05
346,1436800493768,46.221,-8.775,2.05
347,1436800493788,46.221,-8.775,2.05
348,1436800493808,46.221,-8.775,2.05
349,1436800493831,46.536,-8.775,2.05
350,1436800493849,46.536,-8.775,2.05
351,1436800493872,46.536,-8.775,2.05
352,1436800493886,46.536,-8.775,2.05
353,1436800493911,46.536,-8.775,2.05
354,1436800493925,46.536,-8.775,2.05
355,1436800493945,46.536,-8.775,2.05
356,1436800493966,46.536,-8.775,2.05
357,1436800493985,46.536,-8.775,2.05
358,1436800494012,46.536,-8.775,2.05
359,1436800494026,46.536,-8.775,2.05
360,1436800494046,46.536,-8.775,1.739
361,1436800494067,46.536,-8.775,1.739
362,1436800494090,46.536,-8.775,1.739
363,1436800494151,46.536,-8.775,1.739
364,1436800494152,46.536,-8.775,1.739
365,1436800494153,46.536,-8.775,1.739
366,1436800494175,46.536,-8.775,1.739
367,1436800494186,46.536,-8.775,1.739
368,1436800494211,46.208,-8.775,1.739
369,1436800494226,46.208,-8.447,1.739
370,1436800494247,46.208,-8.447,1.739
371,1436800494267,46.208,-8.447,1.739
372,1436800494287,46.208,-8.447,1.739
373,1436800494307,46.208,-8.447,1.739
374,1436800494327,46.208,-8.447,1.739
375,1436800494346,46.208,-8.447,1.739
376,1436800494366,46.208,-8.447,1.739
377,1436800494389,46.208,-8.447,1.739
378,1436800494409,46.208,-8.447,1.739
379,1436800494427,46.208,-8.447,1.739
380,1436800494447,46.208,-8.447,1.739
381,1436800494469,46.208,-8.447,1.739
382,1436800494487,46.208,-8.447,1.739
383,1436800494509,46.208,-8.447,1.739
384,1436800494529,46.208,-8.447,1.739
385,1436800494547,46.208,-8.447,1.739
386,1436800494567,46.208,-8.447,1.739
387,1436800494586,46.208,-8.447,1.739
388,1436800494608,46.208,-8.447,1.739
389,1436800494627,46.208,-8.447,1.739
390,1436800494648,46.208,-8.447,1.739
391,1436800494669,46.208,-8.447,1.739
392,1436800494688,46.208,-8.447,1.739
393,1436800494709,46.208,-8.447,1.739
394,1436800494729,46.208,-8.447,1.419
395,1436800494748,46.208,-8.447,1.419
396,1436800494767,46.208,-8.447,1.419
397,1436800494789,46.208,-8.447,1.419
398,1436800494807,46.208,-8.447,1.419
399,1436800494836,46.208,-8.134,1.419
400,1436800494892,46.208,-8.134,1.419
401,1436800494893,45.903,-8.134,1.419
402,1436800494894,45.903,-8.134,1.419
403,1436800494914,45.903,-8.134,1.419
404,1436800494926,45.903,-8.134,1.419
405,1436800494950,45.903,-8.134,1.419
406,1436800494967,45.903,-8.134,1.419
407,1436800494986,45.903,-8.134,1.419
408,1436800495007,45.903,-8.134,1.419
409,1436800495026,45.903,-8.134,1.419
410,1436800495059,45.903,-8.134,1.419
411,1436800495111,45.903,-8.134,1.419
412,1436800495112,45.903,-8.134,1.419
413,1436800495113,45.903,-8.134,1.419
414,1436800495129,45.903,-8.134,1.419
415,1436800495147,45.903,-8.134,1.419
416,1436800495169,46.252,-8.134,1.419
417,1436800495189,46.252,-8.134,1.419
418,1436800495209,46.252,-8.134,1.419
419,1436800495228,46.252,-8.453,1.419
420,1436800495249,46.252,-8.453,1.419
421,1436800495266,46.252,-8.453,1.419
422,1436800495288,46.252,-8.453,1.419
423,1436800495307,46.252,-8.453,1.419
424,1436800495328,46.252,-8.453,1.419
425,1436800495351,46.252,-8.453,1.419
426,1436800495369,46.252,-8.453,1.419
427,1436800495390,46.252,-8.453,1.419
428,1436800495410,46.252,-8.453,1.419
429,1436800495429,46.252,-8.453,1.419
430,1436800495448,46.252,-8.453,1.419
431,1436800495472,46.252,-8.453,1.419
432,1436800495489,46.252,-8.453,1.419
433,1436800495510,46.252,-8.453,1.419
434,1436800495531,46.252,-8.453,1.419
435,1436800495550,46.252,-8.453,1.419
436,1436800495568,46.252,-8.453,1.419
437,1436800495596,46.252,-8.453,1.419
438,1436800495669,46.252,-8.453,1.419
439,1436800495670,46.252,-8.453,1.419
440,1436800495671,46.252,-8.453,1.419
441,1436800495672,46.252,-8.453,1.419
442,1436800495687,46.252,-8.453,1.419
443,1436800495709,46.252,-8.453,1.419
444,1436800495728,46.252,-8.453,1.419
445,1436800495747,46.252,-8.453,1.419
446,1436800495770,46.252,-8.453,1.419
447,1436800495787,46.252,-8.453,1.419
448,1436800495811,46.252,-8.453,1.419
449,1436800495834,46.252,-8.453,1.419
450,1436800495848,46.252,-8.453,1.419
451,1436800495871,46.252,-8.453,1.739
452,1436800495891,46.252,-8.453,1.739
453,1436800495910,46.252,-8.453,1.739
454,1436800495931,46.252,-8.453,1.739
455,1436800495950,46.252,-8.453,1.739
456,1436800495971,46.252,-8.453,1.739
457,1436800495991,46.252,-8.453,1.739
458,1436800496010,46.252,-8.453,1.739
459,1436800496031,46.252,-8.453,1.739
460,1436800496052,46.252,-8.453,1.739
461,1436800496068,46.252,-8.453,1.739
462,1436800496088,46.252,-8.453,1.739
463,1436800496109,46.252,-8.453,1.739
464,1436800496130,46.252,-8.453,1.739
465,1436800496152,46.252,-8.453,1.739
466,1436800496171,46.252,-8.453,1.739
467,1436800496189,46.252,-8.453,1.739
468,1436800496210,46.252,-8.453,1.739
469,1436800496231,46.252,-8.453,1.739
470,1436800496251,45.936,-8.453,1.739
471,1436800496270,45.936,-8.453,1.739
472,1436800496291,45.936,-8.453,1.739
473,1436800496309,45.936,-8.776,2.6
474,1436800496329,45.564,-10.601,4.24
475,1436800496408,45.564,-12.39,5.961
476,1436800496409,45.564,-14.163,7.119
477,1436800496410,45.137,-15.081,8.233
478,1436800496411,45.137,-16.586,9.185
479,1436800496430,44.261,-17.314,10.545
480,1436800496451,43.33,-18.704,10.545
481,1436800496468,42.5,-19.706,10.545
482,1436800496495,41.77,-20.242,12.214
483,1436800496509,41.293,-21.295,13.261
484,1436800496530,40.774,-21.746,13.261
485,1436800496549,40.065,-23.066,13.903
486,1436800496569,39.602,-23.785,13.578
487,1436800496597,38.787,-23.785,14.314
488,1436800496608,38.121,-24.493,14.314
489,1436800496628,37.454,-25.198,14.314
490,1436800496648,37.101,-25.538,15.638
491,1436800496672,36.552,-25.932,15.313
492,1436800496692,35.923,-26.435,15.959
493,1436800496711,35.433,-26.989,14.999
494,1436800496731,34.663,-27.502,15.682
495,1436800496751,34.323,-27.502,15.682
496,1436800496771,34.323,-27.99,15.682
497,1436800496794,33.563,-28.712,15.296
498,1436800496809,33.125,-29.357,15.296
499,1436800496832,32.633,-29.357,15.296
500,1436800496851,32.633,-29.824,15.296
501,1436800496872,32.225,-30.281,15.296
502,1436800496891,32.225,-30.281,15.296
503,1436800496956,32.225,-30.804,15.296
504,1436800496957,32.225,-31.141,15.296
505,1436800496964,32.225,-31.509,15.296
506,1436800496968,31.781,-31.892,15.296
507,1436800496991,31.781,-31.892,14.459
508,1436800497011,30.967,-31.892,13.096
509,1436800497031,30.967,-31.892,12.586
510,1436800497049,30.967,-31.892,11.311
511,1436800497069,30.967,-32.226,9.294
512,1436800497094,30.967,-32.226,9.294
513,1436800497125,30.967,-32.58,7.786
514,1436800497130,30.967,-32.58,7.786
515,1436800497149,30.967,-32.58,6.922
516,1436800497192,30.967,-32.58,5.812
517,1436800497193,30.967,-33.283,5.081
518,1436800497209,30.642,-33.879,5.081
519,1436800497231,30.642,-33.879,3.709
520,1436800497249,30.642,-34.39,3.709
521,1436800497269,30.642,-34.39,2.281
522,1436800497293,30.642,-34.825,1.367
523,1436800497308,30.642,-34.825,2.165
524,1436800497328,30.642,-34.825,2.165
525,1436800497348,30.642,-35.182,1.686
526,1436800497368,30.642,-35.182,1.126
527,1436800497391,30.642,-35.182,1.466
528,1436800497412,30.642,-35.548,1.466
529,1436800497431,30.642,-35.548,1.466
530,1436800497449,30.642,-35.548,1.039
531,1436800497470,30.642,-35.548,1.039
532,1436800497489,30.642,-35.548,1.039
533,1436800497509,30.642,-35.864,1.039
