id,attr_time,attr_x,attr_y,attr_z
1,1436800486876,43.9529,28.2257,9.65881
2,1436800486896,42.9016,27.8748,10.6689
3,1436800486916,41.6763,27.6993,9.15527
4,1436800486936,41.6763,27.6993,9.15527
5,1436800486953,41.8518,27.1713,9.65881
6,1436800486975,42.5522,27.8748,10.3317
7,1436800486995,42.5522,27.8748,10.3317
8,1436800487015,42.0258,28.0502,9.15527
9,1436800487035,41.6763,28.7537,10.8368
10,1436800487055,41.6763,28.7537,10.8368
11,1436800487074,40.625,28.0502,10.1639
12,1436800487095,42.7277,26.9959,9.82819
13,1436800487114,42.7277,26.9959,9.82819
14,1436800487134,40.274,27.6993,10.4996
15,1436800487154,42.9016,27.8748,9.32312
16,1436800487173,42.9016,27.8748,9.32312
17,1436800487194,42.5522,27.5223,11.0046
18,1436800487213,42.5522,27.5223,9.32312
19,1436800487234,42.5522,27.5223,9.32312
20,1436800487253,42.3767,28.0502,9.49097
21,1436800487271,42.7277,27.3468,9.82819
22,1436800487293,42.7277,27.3468,9.82819
23,1436800487311,42.7277,28.4012,9.15527
24,1436800487333,42.0258,27.6993,9.15527
25,1436800487352,42.0258,27.6993,9.15527
26,1436800487372,41.6763,28.4012,9.82819
27,1436800487392,42.2012,27.5223,9.32312
28,1436800487410,42.2012,27.5223,9.32312
29,1436800487434,41.6763,28.7537,9.49097
30,1436800487451,42.2012,27.8748,8.9859
31,1436800487471,42.2012,27.8748,8.9859
32,1436800487491,42.0258,29.1046,9.49097
33,1436800487510,43.0771,25.9415,9.82819
34,1436800487533,43.0771,25.9415,9.82819
35,1436800487550,40.0986,27.5223,9.65881
36,1436800487570,42.9016,26.8204,9.32312
37,1436800487591,42.9016,26.8204,9.32312
38,1436800487609,40.625,27.3468,10.1639
39,1436800487631,41.3254,27.6993,10.1639
40,1436800487650,41.3254,27.6993,10.1639
41,1436800487672,43.6035,27.5223,8.65021
42,1436800487689,42.2012,26.8204,10.6689
43,1436800487712,42.2012,26.8204,10.6689
44,1436800487727,40.976,28.7537,11.8454
45,1436800487749,41.3254,28.7537,11.1725
46,1436800487769,41.3254,28.7537,11.1725
47,1436800487788,41.8518,27.1713,9.32312
48,1436800487811,42.7277,28.0502,10.1639
49,1436800487828,42.7277,28.0502,10.1639
50,1436800487847,41.5009,27.5223,11.3403
51,1436800487868,42.0258,27.3468,9.15527
52,1436800487888,42.0258,27.3468,9.15527
53,1436800487910,42.5522,27.8748,8.9859
54,1436800487927,41.6763,28.0502,10.4996
55,1436800487946,41.6763,28.0502,10.4996
56,1436800487968,41.3254,28.0502,11.1725
57,1436800487986,43.0771,27.3468,8.81805
58,1436800488008,43.0771,27.3468,8.81805
59,1436800488027,41.5009,27.5223,9.99603
60,1436800488045,42.5522,27.5223,10.6689
61,1436800488067,42.5522,27.5223,10.6689
62,1436800488085,41.8518,27.8748,9.65881
63,1436800488108,42.7277,28.0502,10.8368
64,1436800488126,42.7277,28.0502,10.8368
65,1436800488145,41.8518,27.5223,9.32312
66,1436800488166,42.0258,29.1046,9.82819
67,1436800488184,42.0258,29.1046,9.82819
68,1436800488208,43.0771,27.6993,10.1639
69,1436800488226,41.3254,28.0502,8.81805
70,1436800488245,41.3254,28.0502,8.81805
71,1436800488265,41.5009,28.9291,11.3403
72,1436800488284,42.2012,27.5223,10.6689
73,1436800488307,42.2012,27.5223,10.6689
74,1436800488324,42.7277,28.0502,10.4996
75,1436800488344,42.3767,27.3468,9.15527
76,1436800488364,42.3767,27.3468,9.15527
77,1436800488384,42.5522,26.4679,8.9859
78,1436800488403,41.8518,27.5223,9.99603
79,1436800488424,41.8518,27.5223,9.99603
80,1436800488443,41.8518,28.2257,10.3317
81,1436800488464,41.6763,26.9959,10.4996
82,1436800488483,41.6763,26.9959,10.4996
83,1436800488501,41.6763,27.6993,9.82819
84,1436800488523,42.5522,29.2801,9.32312
85,1436800488542,42.5522,29.2801,9.32312
86,1436800488563,41.6763,27.3468,10.1639
87,1436800488582,40.8005,30.336,10.6689
88,1436800488602,40.8005,30.336,10.6689
89,1436800488622,42.0258,27.6993,9.82819
90,1436800488641,42.3767,28.4012,9.49097
91,1436800488662,42.3767,28.4012,9.49097
92,1436800488681,40.976,26.2924,9.82819
93,1436800488703,40.8005,28.2257,9.32312
94,1436800488721,40.8005,28.2257,9.32312
95,1436800488741,40.976,27.3468,9.49097
96,1436800488760,42.7277,26.2924,10.1639
97,1436800488781,42.7277,26.2924,10.1639
98,1436800488803,40.976,28.0502,10.4996
99,1436800488818,41.3254,27.6993,10.1639
100,1436800488839,41.3254,27.6993,10.1639
101,1436800488859,41.8518,27.1713,9.99603
102,1436800488879,41.8518,28.5782,9.65881
103,1436800488900,41.8518,28.5782,9.65881
104,1436800488919,42.3767,26.9959,9.49097
105,1436800488939,43.779,28.7537,10.1639
106,1436800488960,43.779,28.7537,10.1639
107,1436800488978,41.3254,26.6434,10.1639
108,1436800489001,42.2012,28.2257,8.31451
109,1436800489019,42.2012,28.2257,8.31451
110,1436800489040,41.1499,27.5223,9.32312
111,1436800489058,41.5009,26.8204,10.3317
112,1436800489079,41.5009,26.8204,10.3317
113,1436800489098,41.5009,28.9291,9.65881
114,1436800489117,42.7277,27.3468,9.82819
115,1436800489138,42.7277,27.3468,9.82819
116,1436800489157,43.779,27.3468,10.1639
117,1436800489176,42.9016,28.9291,9.65881
118,1436800489197,42.9016,28.9291,9.65881
119,1436800489217,41.5009,27.1713,8.9859
120,1436800489237,41.6763,28.4012,10.4996
121,1436800489257,41.6763,28.4012,10.4996
122,1436800489275,42.3767,28.0502,10.4996
123,1436800489296,43.6035,27.5223,10.6689
124,1436800489315,43.6035,27.5223,10.6689
125,1436800489336,42.3767,27.6993,10.1639
126,1436800489356,41.3254,27.3468,9.15527
127,1436800489376,41.3254,27.3468,9.15527
128,1436800489395,41.8518,27.1713,10.6689
129,1436800489415,40.8005,28.2257,8.65021
130,1436800489436,40.8005,28.2257,8.65021
131,1436800489455,42.7277,26.9959,9.49097
132,1436800489477,42.9016,26.4679,9.99603
133,1436800489494,42.9016,26.4679,9.99603
134,1436800489514,42.2012,27.8748,9.32312
135,1436800489535,42.0258,27.3468,9.15527
136,1436800489554,42.0258,27.3468,9.15527
137,1436800489576,40.625,26.6434,9.15527
138,1436800489592,41.8518,26.8204,8.31451
139,1436800489613,41.8518,26.8204,8.31451
140,1436800489633,42.5522,27.5223,9.65881
141,1436800489653,42.3767,27.3468,9.49097
142,1436800489676,42.3767,27.3468,9.49097
143,1436800489693,42.2012,27.8748,9.32312
144,1436800489713,42.9016,27.5223,9.99603
145,1436800489732,42.9016,27.5223,9.99603
146,1436800489752,42.0258,25.589,9.15527
147,1436800489773,43.2526,27.1713,8.65021
148,1436800489792,43.2526,27.1713,8.65021
149,1436800489812,41.3254,26.2924,9.15527
150,1436800489831,42.7277,28.0502,8.48236
151,1436800489852,42.7277,28.0502,8.48236
152,1436800489874,41.6763,28.0502,11.1725
153,1436800489891,42.3767,26.2924,8.48236
154,1436800489911,42.3767,26.2924,8.48236
155,1436800489931,42.5522,27.1713,10.6689
156,1436800489950,42.0258,27.3468,9.82819
157,1436800489973,42.0258,27.3468,9.82819
158,1436800489990,41.1499,27.5223,9.32312
159,1436800490010,42.5522,28.2257,9.65881
160,1436800490031,42.5522,28.2257,9.65881
161,1436800490048,41.6763,27.3468,10.1639
162,1436800490072,41.8518,28.2257,9.99603
163,1436800490089,41.8518,28.2257,9.99603
164,1436800490109,42.9016,27.1713,9.32312
165,1436800490130,42.3767,28.0502,10.1639
166,1436800490149,42.3767,28.0502,10.1639
167,1436800490169,42.3767,27.6993,10.1639
168,1436800490189,42.2012,27.5223,9.32312
169,1436800490209,42.2012,27.5223,9.32312
170,1436800490229,40.8005,27.1713,9.32312
171,1436800490248,41.5009,28.2257,9.99603
172,1436800490269,41.5009,28.2257,9.99603
173,1436800490288,41.5009,27.5223,9.32312
174,1436800490308,42.7277,26.9959,8.81805
175,1436800490329,42.7277,26.9959,8.81805
176,1436800490347,42.0258,26.9959,9.15527
177,1436800490368,43.2526,26.8204,9.65881
178,1436800490387,43.2526,26.8204,9.65881
179,1436800490408,42.0258,28.0502,10.1639
180,1436800490461,42.3767,28.4012,9.49097
181,1436800490462,42.3767,28.4012,9.49097
182,1436800490465,41.5009,29.2801,11.0046
183,1436800490486,40.625,30.5115,9.49097
184,1436800490505,40.625,30.5115,9.49097
185,1436800490526,42.2012,28.2257,9.65881
186,1436800490545,42.2012,28.9291,11.0046
187,1436800490567,42.2012,28.9291,11.0046
188,1436800490585,42.2012,26.8204,9.65881
189,1436800490605,42.7277,27.3468,9.82819
190,1436800490626,42.7277,27.3468,9.82819
191,1436800490645,41.1499,27.8748,9.32312
192,1436800490665,42.0258,26.9959,9.49097
193,1436800490685,42.0258,26.9959,9.49097
194,1436800490707,42.0258,26.6434,9.15527
195,1436800490723,43.779,27.6993,9.49097
196,1436800490744,43.779,27.6993,9.49097
197,1436800490766,41.6763,28.0502,11.1725
198,1436800490780,42.3767,27.3468,10.1639
199,1436800490801,42.3767,27.3468,10.1639
200,1436800490820,42.5522,29.9835,9.65881
201,1436800490839,39.9246,29.1046,9.15527
202,1436800490863,39.9246,29.1046,9.15527
203,1436800490883,42.3767,27.3468,9.49097
204,1436800490903,42.0258,26.6434,9.82819
205,1436800490923,42.0258,26.6434,9.82819
206,1436800490942,42.0258,26.9959,9.49097
207,1436800490963,43.0771,26.6434,9.49097
208,1436800490982,43.0771,26.6434,9.49097
209,1436800491004,42.9016,27.8748,9.32312
210,1436800491022,42.3767,27.3468,9.49097
211,1436800491042,42.3767,27.3468,9.49097
212,1436800491062,41.8518,27.8748,12.0132
213,1436800491081,41.5009,28.2257,9.99603
214,1436800491102,41.5009,28.2257,9.99603
215,1436800491121,43.0771,25.9415,9.15527
216,1436800491139,42.0258,27.3468,9.82819
217,1436800491161,42.0258,27.3468,9.82819
218,1436800491179,41.1499,27.5223,9.32312
219,1436800491201,42.3767,28.0502,10.1639
220,1436800491221,42.3767,28.0502,10.1639
221,1436800491240,41.5009,26.8204,9.65881
222,1436800491260,41.3254,26.2924,9.49097
223,1436800491278,41.3254,26.2924,9.49097
224,1436800491302,43.779,27.3468,9.49097
225,1436800491319,42.0258,26.9959,9.82819
226,1436800491340,42.0258,26.9959,9.82819
227,1436800491360,41.3254,27.6993,12.5183
228,1436800491379,42.0258,27.3468,9.82819
229,1436800491402,42.0258,27.3468,9.82819
230,1436800491419,42.3767,28.0502,9.49097
231,1436800491438,41.3254,28.0502,8.48236
232,1436800491459,41.3254,28.0502,8.48236
233,1436800491478,41.8518,26.1169,10.3317
234,1436800491497,43.428,27.3468,9.49097
235,1436800491518,43.428,27.3468,9.49097
236,1436800491538,43.9529,27.8748,8.65021
237,1436800491558,41.5009,27.1713,9.65881
238,1436800491578,41.5009,27.1713,9.65881
239,1436800491599,42.7277,26.6434,9.49097
240,1436800491616,43.9529,26.8204,9.65881
241,1436800491636,43.9529,26.8204,9.65881
242,1436800491657,42.7277,27.6993,10.4996
243,1436800491676,42.5522,30.336,9.32312
244,1436800491695,42.5522,30.336,9.32312
245,1436800491716,42.7277,26.2924,9.15527
246,1436800491736,42.5522,28.2257,9.99603
247,1436800491756,42.5522,28.2257,9.99603
248,1436800491775,42.7277,26.9959,9.49097
249,1436800491796,43.0771,26.6434,9.49097
250,1436800491815,43.0771,26.6434,9.49097
251,1436800491838,42.0258,26.9959,9.49097
252,1436800491855,42.5522,28.2257,10.3317
253,1436800491875,42.5522,28.2257,10.3317
254,1436800491895,43.2526,27.1713,10.6689
255,1436800491913,42.9016,26.1169,9.99603
256,1436800491937,42.9016,26.1169,9.99603
257,1436800491953,42.7277,27.3468,11.5097
258,1436800491974,43.6035,27.1713,11.0046
259,1436800491995,43.6035,27.1713,11.0046
260,1436800492014,44.1284,27.3468,10.8368
261,1436800492036,41.8518,26.8204,9.65881
262,1436800492052,41.8518,26.8204,9.65881
263,1436800492073,42.3767,27.6993,9.15527
264,1436800492093,41.8518,27.5223,10.6689
265,1436800492113,41.8518,27.5223,10.6689
266,1436800492133,42.5522,26.8204,8.65021
267,1436800492152,41.8518,27.1713,9.32312
268,1436800492173,41.8518,27.1713,9.32312
269,1436800492193,41.8518,26.8204,9.99603
270,1436800492212,43.0771,27.3468,9.15527
271,1436800492234,43.0771,27.3468,9.15527
272,1436800492252,42.3767,27.3468,9.82819
273,1436800492271,42.7277,26.9959,9.15527
274,1436800492293,42.7277,26.9959,9.15527
275,1436800492311,42.2012,27.1713,9.99603
276,1436800492332,42.7277,27.6993,10.4996
277,1436800492351,42.7277,27.6993,10.4996
278,1436800492370,42.7277,26.9959,11.5097
279,1436800492391,43.428,26.9959,9.82819
280,1436800492410,43.428,26.9959,9.82819
281,1436800492433,42.0258,25.9415,9.82819
282,1436800492450,42.9016,28.5782,11.3403
283,1436800492470,42.9016,28.5782,11.3403
284,1436800492490,42.3767,28.4012,9.15527
285,1436800492510,41.8518,26.8204,8.9859
286,1436800492533,41.8518,26.8204,8.9859
287,1436800492549,40.625,25.9415,9.49097
288,1436800492569,42.3767,27.6993,9.82819
289,1436800492590,42.3767,27.6993,9.82819
290,1436800492608,42.3767,26.6434,10.1639
291,1436800492629,42.5522,28.5782,8.9859
292,1436800492649,42.5522,28.5782,8.9859
293,1436800492667,41.8518,26.8204,8.31451
294,1436800492689,43.779,27.3468,9.49097
295,1436800492708,43.779,27.3468,9.49097
296,1436800492728,42.3767,26.9959,9.15527
297,1436800492747,43.2526,26.8204,9.99603
298,1436800492768,43.2526,26.8204,9.99603
299,1436800492788,41.5009,26.8204,8.31451
300,1436800492807,42.2012,26.8204,9.32312
301,1436800492826,42.2012,26.8204,9.32312
302,1436800492847,41.6763,28.4012,9.49097
303,1436800492866,42.2012,26.8204,8.31451
304,1436800492888,42.2012,26.8204,8.31451
305,1436800492906,43.779,27.3468,9.15527
306,1436800492929,42.3767,28.4012,10.4996
307,1436800492947,42.3767,28.4012,10.4996
308,1436800492966,42.2012,26.8204,10.3317
309,1436800492986,42.2012,25.7645,9.99603
310,1436800493006,42.2012,25.7645,9.99603
311,1436800493026,42.3767,26.6434,11.1725
312,1436800493044,42.2012,27.5223,9.99603
313,1436800493066,42.2012,27.5223,9.99603
314,1436800493085,43.428,26.6434,10.8368
315,1436800493105,42.7277,27.3468,9.15527
316,1436800493126,42.7277,27.3468,9.15527
317,1436800493143,42.9016,27.5223,10.3317
318,1436800493165,42.3767,27.6993,9.49097
319,1436800493184,42.3767,27.6993,9.49097
320,1436800493204,42.2012,27.1713,9.32312
321,1436800493225,42.2012,28.2257,9.65881
322,1436800493244,42.2012,28.2257,9.65881
323,1436800493264,42.7277,27.6993,9.82819
324,1436800493283,41.6763,28.0502,8.81805
325,1436800493304,41.6763,28.0502,8.81805
326,1436800493323,43.779,27.3468,10.8368
327,1436800493343,42.7277,26.2924,10.4996
328,1436800493366,42.7277,26.2924,10.4996
329,1436800493383,41.3254,27.6993,10.8368
330,1436800493403,41.8518,26.8204,9.65881
331,1436800493423,41.8518,26.8204,9.65881
332,1436800493442,42.0258,28.0502,8.48236
333,1436800493461,43.0771,26.9959,8.81805
334,1436800493481,43.0771,26.9959,8.81805
335,1436800493501,42.9016,25.7645,9.32312
336,1436800493522,43.2526,27.5223,9.99603
337,1436800493542,43.2526,27.5223,9.99603
338,1436800493564,40.8005,27.8748,9.99603
339,1436800493581,42.3767,27.3468,9.49097
340,1436800493599,42.3767,27.3468,9.49097
341,1436800493620,42.9016,26.1169,10.6689
342,1436800493640,42.5522,28.9291,9.99603
343,1436800493663,42.5522,28.9291,9.99603
344,1436800493680,42.2012,26.8204,8.65021
345,1436800493700,43.6035,28.2257,8.31451
346,1436800493721,43.6035,28.2257,8.31451
347,1436800493739,41.1499,25.7645,9.32312
348,1436800493761,43.0771,26.9959,8.81805
349,1436800493779,43.0771,26.9959,8.81805
350,1436800493799,42.3767,26.9959,8.48236
351,1436800493818,42.2012,27.1713,9.99603
352,1436800493839,42.2012,27.1713,9.99603
353,1436800493861,41.3254,26.9959,9.49097
354,1436800493879,42.7277,26.9959,10.4996
355,1436800493899,42.7277,26.9959,10.4996
356,1436800493918,42.5522,28.5782,9.32312
357,1436800493938,42.3767,26.2924,10.4996
358,1436800493960,42.3767,26.2924,10.4996
359,1436800493978,42.2012,28.2257,9.99603
360,1436800493997,42.2012,28.2257,9.32312
361,1436800494018,42.2012,28.2257,9.32312
362,1436800494037,41.1499,25.7645,8.31451
363,1436800494060,42.0258,26.9959,8.81805
364,1436800494077,42.0258,26.9959,8.81805
365,1436800494096,42.3767,27.3468,9.15527
366,1436800494117,42.3767,26.9959,7.47375
367,1436800494137,42.3767,26.9959,7.47375
368,1436800494156,42.0258,26.9959,9.49097
369,1436800494176,41.5009,27.5223,9.65881
370,1436800494196,41.5009,27.5223,9.65881
371,1436800494216,42.5522,27.5223,9.32312
372,1436800494234,41.5009,26.8204,8.65021
373,1436800494256,41.5009,26.8204,8.65021
374,1436800494274,41.5009,27.5223,8.31451
375,1436800494298,42.5522,27.5223,8.65021
376,1436800494315,42.5522,27.5223,8.65021
377,1436800494335,43.428,28.7537,9.82819
378,1436800494355,42.9016,27.8748,9.32312
379,1436800494373,42.9016,27.8748,9.32312
380,1436800494397,41.5009,27.1713,9.32312
381,1436800494413,42.9016,27.1713,6.633
382,1436800494434,42.9016,27.1713,6.633
383,1436800494454,43.2526,28.5782,9.32312
384,1436800494473,40.976,28.0502,8.14514
385,1436800494496,40.976,28.0502,8.14514
386,1436800494513,42.5522,28.2257,9.65881
387,1436800494533,42.5522,27.5223,8.9859
388,1436800494553,42.5522,27.5223,8.9859
389,1436800494573,42.2012,26.8204,9.65881
390,1436800494594,44.1284,27.6993,9.82819
391,1436800494612,44.1284,27.6993,9.82819
392,1436800494632,42.2012,26.4679,9.65881
393,1436800494653,41.3254,27.6993,9.15527
394,1436800494672,41.3254,27.6993,9.15527
395,1436800494691,42.5522,28.2257,9.32312
396,1436800494712,42.0258,27.3468,9.15527
397,1436800494731,42.0258,27.3468,9.15527
398,1436800494751,42.2012,28.2257,9.65881
399,1436800494771,41.5009,28.2257,8.9859
400,1436800494792,41.5009,28.2257,8.9859
401,1436800494810,42.7277,26.9959,9.15527
402,1436800494831,42.7277,28.7537,9.82819
403,1436800494851,42.7277,28.7537,9.82819
404,1436800494870,42.9016,26.1169,8.9859
405,1436800494891,42.0258,28.7537,8.48236
406,1436800494910,42.0258,28.7537,8.48236
407,1436800494930,42.2012,28.2257,9.32312
408,1436800494950,40.8005,28.2257,10.6689
409,1436800494970,40.8005,28.2257,10.6689
410,1436800494992,41.5009,28.2257,9.65881
411,1436800495007,42.9016,27.1713,9.65881
412,1436800495029,42.9016,27.1713,9.65881
413,1436800495048,40.8005,28.9291,11.3403
414,1436800495069,41.3254,28.4012,11.1725
415,1436800495091,41.3254,28.4012,11.1725
416,1436800495108,44.3039,27.5223,9.99603
417,1436800495128,42.5522,27.1713,9.65881
418,1436800495147,42.5522,27.1713,9.65881
419,1436800495168,43.0771,25.589,10.1639
420,1436800495189,42.5522,28.2257,9.99603
421,1436800495208,42.5522,28.2257,9.99603
422,1436800495227,42.2012,27.1713,10.6689
423,1436800495248,42.9016,27.5223,9.32312
424,1436800495267,42.9016,27.5223,9.32312
425,1436800495289,41.5009,27.5223,9.99603
426,1436800495307,42.7277,27.6993,9.82819
427,1436800495326,42.7277,27.6993,9.82819
428,1436800495347,41.3254,28.4012,11.1725
429,1436800495365,40.625,27.6993,9.49097
430,1436800495389,40.625,27.6993,9.49097
431,1436800495406,41.8518,28.2257,8.31451
432,1436800495426,43.428,27.6993,9.49097
433,1436800495446,43.428,27.6993,9.49097
434,1436800495464,43.9529,28.2257,9.65881
435,1436800495485,43.2526,28.9291,11.6776
436,1436800495504,43.2526,28.9291,11.6776
437,1436800495525,41.8518,26.4679,8.9859
438,1436800495545,42.5522,29.2801,9.32312
439,1436800495565,42.5522,29.2801,9.32312
440,1436800495587,42.5522,26.1169,8.31451
441,1436800495604,40.976,26.9959,10.8368
442,1436800495624,40.976,26.9959,10.8368
443,1436800495644,42.0258,28.7537,8.81805
444,1436800495664,43.2526,26.8204,8.31451
445,1436800495685,43.2526,26.8204,8.31451
446,1436800495703,41.3254,28.4012,10.1639
447,1436800495724,41.6763,26.9959,8.81805
448,1436800495743,41.6763,26.9959,8.81805
449,1436800495763,42.2012,28.2257,9.32312
450,1436800495781,41.8518,26.8204,8.9859
451,1436800495802,41.8518,26.8204,8.9859
452,1436800495824,42.9016,28.5782,9.99603
453,1436800495842,42.3767,29.4571,9.15527
454,1436800495862,42.3767,29.4571,9.15527
455,1436800495882,41.8518,28.5782,11.3403
456,1436800495902,39.0488,28.9291,10.3317
457,1436800495920,39.0488,28.9291,10.3317
458,1436800495941,41.3254,28.0502,10.8368
459,1436800495960,42.2012,29.6326,10.6689
460,1436800495982,42.2012,29.6326,10.6689
461,1436800496001,41.8518,28.5782,9.65881
462,1436800496023,40.0986,30.336,9.99603
463,1436800496041,40.0986,30.336,9.99603
464,1436800496060,40.976,29.1046,10.8368
465,1436800496081,42.2012,29.2801,9.65881
466,1436800496100,42.2012,29.2801,9.65881
467,1436800496122,40.625,29.4571,10.8368
468,1436800496138,40.4495,31.3904,10.3317
469,1436800496160,40.4495,31.3904,10.3317
470,1436800496180,39.3982,31.3904,12.0132
471,1436800496199,39.0488,29.6326,11.6776
472,1436800496222,39.0488,29.6326,11.6776
473,1436800496238,38.5223,31.5659,12.1811
474,1436800496259,38.1714,31.5659,13.1912
475,1436800496278,38.1714,31.5659,13.1912
476,1436800496298,38.5223,32.2693,12.1811
477,1436800496321,37.1216,32.2693,10.4996
478,1436800496338,37.1216,32.2693,10.4996
479,1436800496358,37.471,33.6746,11.5097
