id,attr_time,attr_light
1,1436798088037,86.0
2,1436798088058,86.0
3,1436798088078,86.0
4,1436798088096,86.0
5,1436798088121,85.0
6,1436798088170,85.0
7,1436798088171,84.0
8,1436798088178,84.0
9,1436798088194,83.0
10,1436798088223,83.0
11,1436798088236,83.0
12,1436798088254,83.0
13,1436798088276,82.0
14,1436798088294,82.0
15,1436798088317,82.0
16,1436798088338,82.0
17,1436798088356,83.0
18,1436798088378,83.0
19,1436798088397,82.0
20,1436798088417,82.0
21,1436798088437,82.0
22,1436798088458,83.0
23,1436798088478,83.0
24,1436798088498,82.0
25,1436798088518,82.0
26,1436798088537,82.0
27,1436798088558,82.0
28,1436798088575,82.0
29,1436798088598,82.0
30,1436798088617,82.0
31,1436798088638,82.0
32,1436798088658,81.0
33,1436798088678,81.0
34,1436798088696,80.0
35,1436798088718,80.0
36,1436798088736,80.0
37,1436798088759,80.0
38,1436798088778,81.0
39,1436798088800,81.0
40,1436798088816,81.0
41,1436798088839,81.0
42,1436798089020,81.0
43,1436798089021,81.0
44,1436798089022,81.0
45,1436798089023,81.0
46,1436798089024,81.0
47,1436798089025,81.0
48,1436798089026,81.0
49,1436798089027,81.0
50,1436798089028,81.0
51,1436798089068,81.0
52,1436798089069,81.0
53,1436798089077,81.0
54,1436798089108,81.0
55,1436798089116,81.0
56,1436798089136,82.0
57,1436798089156,82.0
58,1436798089176,81.0
59,1436798089198,81.0
60,1436798089215,81.0
61,1436798089238,81.0
62,1436798089258,81.0
63,1436798089279,82.0
64,1436798089298,82.0
65,1436798089318,82.0
66,1436798089338,82.0
67,1436798089359,82.0
68,1436798089379,82.0
69,1436798089397,82.0
70,1436798089419,82.0
71,1436798089439,82.0
72,1436798089456,82.0
73,1436798089477,82.0
74,1436798089496,82.0
75,1436798089519,82.0
76,1436798089539,82.0
77,1436798089559,82.0
78,1436798089577,82.0
79,1436798089596,82.0
80,1436798089617,82.0
81,1436798089637,82.0
82,1436798089658,82.0
83,1436798089680,82.0
84,1436798089749,82.0
85,1436798089750,82.0
86,1436798089751,82.0
87,1436798089759,82.0
88,1436798089777,82.0
89,1436798089798,83.0
90,1436798089816,83.0
91,1436798089837,82.0
92,1436798089856,82.0
93,1436798089878,82.0
94,1436798089911,82.0
95,1436798089919,82.0
96,1436798089942,82.0
97,1436798089957,82.0
98,1436798089977,82.0
99,1436798089999,82.0
100,1436798090019,82.0
101,1436798090039,82.0
102,1436798090059,82.0
103,1436798090076,82.0
104,1436798090100,83.0
105,1436798090119,83.0
106,1436798090137,83.0
107,1436798090159,83.0
108,1436798090179,83.0
109,1436798090197,83.0
110,1436798090216,84.0
111,1436798090249,84.0
112,1436798090294,83.0
113,1436798090295,83.0
114,1436798090300,83.0
115,1436798090319,83.0
116,1436798090337,83.0
117,1436798090357,83.0
118,1436798090378,84.0
119,1436798090406,84.0
120,1436798090471,84.0
121,1436798090472,84.0
122,1436798090473,85.0
123,1436798090480,85.0
124,1436798090498,85.0
125,1436798090518,85.0
126,1436798090536,85.0
127,1436798090557,85.0
128,1436798090577,85.0
129,1436798090597,85.0
130,1436798090618,85.0
131,1436798090638,85.0
132,1436798090660,85.0
133,1436798090679,85.0
134,1436798090699,85.0
135,1436798090719,85.0
136,1436798090740,85.0
137,1436798090760,85.0
138,1436798090780,85.0
139,1436798090798,85.0
140,1436798090819,85.0
141,1436798090840,85.0
142,1436798090867,85.0
143,1436798090878,85.0
144,1436798090897,85.0
145,1436798090919,86.0
146,1436798090937,86.0
147,1436798090958,86.0
148,1436798090980,86.0
149,1436798091000,86.0
150,1436798091020,86.0
151,1436798091040,86.0
152,1436798091060,86.0
153,1436798091078,86.0
154,1436798091098,86.0
155,1436798091117,86.0
156,1436798091198,86.0
157,1436798091199,86.0
158,1436798091200,86.0
159,1436798091201,86.0
160,1436798091217,86.0
161,1436798091238,85.0
162,1436798091257,85.0
163,1436798091278,85.0
164,1436798091299,85.0
165,1436798091318,85.0
166,1436798091339,85.0
167,1436798091358,84.0
168,1436798091379,84.0
169,1436798091398,84.0
170,1436798091420,84.0
171,1436798091439,84.0
172,1436798091461,84.0
173,1436798091479,84.0
174,1436798091500,84.0
175,1436798091519,84.0
176,1436798091539,84.0
177,1436798091561,84.0
178,1436798091581,84.0
179,1436798091599,84.0
180,1436798091619,84.0
181,1436798091638,84.0
182,1436798091659,84.0
183,1436798091679,84.0
184,1436798091702,84.0
185,1436798091717,84.0
186,1436798091742,84.0
187,1436798091761,84.0
188,1436798091780,83.0
189,1436798091798,83.0
190,1436798091818,83.0
191,1436798091839,83.0
192,1436798091952,83.0
193,1436798091953,83.0
194,1436798091954,82.0
195,1436798091955,82.0
196,1436798091956,83.0
197,1436798091969,83.0
198,1436798091978,83.0
199,1436798091998,83.0
200,1436798092018,82.0
201,1436798092038,82.0
202,1436798092059,82.0
203,1436798092079,82.0
204,1436798092099,82.0
205,1436798092118,82.0
206,1436798092138,83.0
207,1436798092161,83.0
208,1436798092179,83.0
209,1436798092200,83.0
210,1436798092222,82.0
211,1436798092240,82.0
212,1436798092261,82.0
213,1436798092279,82.0
214,1436798092300,83.0
215,1436798092321,83.0
216,1436798092341,83.0
217,1436798092361,83.0
218,1436798092379,83.0
219,1436798092400,83.0
220,1436798092421,83.0
221,1436798092438,83.0
222,1436798092461,83.0
223,1436798092481,83.0
224,1436798092502,83.0
225,1436798092522,84.0
226,1436798092539,84.0
227,1436798092559,83.0
228,1436798092579,83.0
229,1436798092599,84.0
230,1436798092665,84.0
231,1436798092666,84.0
232,1436798092667,84.0
233,1436798092688,84.0
234,1436798092698,84.0
235,1436798092722,84.0
236,1436798092739,84.0
237,1436798092758,84.0
238,1436798092779,84.0
239,1436798092799,85.0
240,1436798092821,85.0
241,1436798092843,85.0
242,1436798092862,85.0
243,1436798092881,85.0
244,1436798092903,85.0
245,1436798092919,85.0
246,1436798092942,85.0
247,1436798092959,85.0
248,1436798092982,85.0
249,1436798093002,85.0
250,1436798093022,85.0
251,1436798093042,85.0
252,1436798093060,85.0
253,1436798093081,84.0
254,1436798093102,84.0
255,1436798093122,84.0
256,1436798093156,84.0
257,1436798093160,85.0
258,1436798093179,85.0
259,1436798093199,85.0
260,1436798093219,85.0
261,1436798093239,85.0
262,1436798093260,85.0
263,1436798093282,85.0
264,1436798093300,86.0
265,1436798093320,86.0
266,1436798093340,85.0
267,1436798093362,85.0
268,1436798093410,85.0
269,1436798093411,85.0
270,1436798093420,85.0
271,1436798093439,85.0
272,1436798093463,85.0
273,1436798093480,85.0
274,1436798093499,85.0
275,1436798093522,85.0
276,1436798093540,85.0
277,1436798093560,85.0
278,1436798093579,85.0
279,1436798093601,85.0
280,1436798093619,85.0
281,1436798093640,85.0
282,1436798093660,84.0
283,1436798093680,84.0
284,1436798093703,85.0
285,1436798093723,85.0
286,1436798093740,85.0
287,1436798093762,85.0
288,1436798093780,86.0
289,1436798093801,86.0
290,1436798093827,86.0
291,1436798093840,86.0
292,1436798093860,85.0
293,1436798093944,85.0
294,1436798093945,85.0
295,1436798093946,85.0
296,1436798093947,85.0
297,1436798093961,85.0
298,1436798094002,85.0
299,1436798094003,85.0
300,1436798094152,85.0
301,1436798094153,84.0
302,1436798094154,84.0
303,1436798094155,84.0
304,1436798094156,84.0
305,1436798094157,84.0
306,1436798094158,84.0
307,1436798094173,84.0
308,1436798094189,84.0
309,1436798094199,84.0
310,1436798094219,84.0
311,1436798094240,84.0
312,1436798094259,84.0
313,1436798094280,84.0
314,1436798094302,84.0
315,1436798094323,84.0
316,1436798094339,84.0
317,1436798094362,84.0
318,1436798094383,84.0
319,1436798094401,85.0
320,1436798094424,85.0
321,1436798094442,85.0
322,1436798094459,85.0
323,1436798094479,85.0
324,1436798094499,85.0
325,1436798094519,85.0
326,1436798094539,85.0
327,1436798094559,85.0
328,1436798094579,85.0
329,1436798094600,85.0
330,1436798094619,85.0
331,1436798094641,85.0
332,1436798094661,85.0
333,1436798094680,85.0
334,1436798094701,85.0
335,1436798094721,85.0
336,1436798094746,85.0
337,1436798094778,84.0
338,1436798094785,84.0
339,1436798094801,85.0
340,1436798094821,84.0
341,1436798094842,84.0
342,1436798094860,84.0
343,1436798094882,84.0
344,1436798094900,84.0
345,1436798094921,84.0
346,1436798094944,84.0
347,1436798094964,84.0
348,1436798094981,84.0
349,1436798095003,84.0
350,1436798095024,84.0
351,1436798095041,84.0
352,1436798095063,84.0
353,1436798095082,84.0
354,1436798095105,84.0
355,1436798095125,84.0
356,1436798095140,84.0
357,1436798095164,84.0
358,1436798095186,84.0
359,1436798095204,84.0
360,1436798095224,84.0
361,1436798095251,84.0
362,1436798095261,84.0
363,1436798095282,84.0
364,1436798095302,83.0
365,1436798095321,83.0
366,1436798095341,84.0
367,1436798095363,84.0
368,1436798095387,84.0
369,1436798095417,84.0
370,1436798095436,84.0
371,1436798095459,84.0
372,1436798095461,84.0
373,1436798095481,84.0
374,1436798095504,84.0
375,1436798095521,84.0
376,1436798095552,83.0
377,1436798095561,83.0
378,1436798095581,83.0
379,1436798095604,83.0
380,1436798095622,83.0
381,1436798095641,84.0
382,1436798095662,84.0
383,1436798095686,84.0
384,1436798095705,84.0
385,1436798095725,84.0
386,1436798095742,84.0
387,1436798095765,84.0
388,1436798095785,84.0
389,1436798095805,84.0
390,1436798095825,84.0
391,1436798095841,84.0
392,1436798095863,84.0
393,1436798095885,84.0
394,1436798095903,84.0
395,1436798095926,84.0
396,1436798095942,84.0
397,1436798095966,84.0
398,1436798095985,84.0
399,1436798096005,84.0
400,1436798096024,84.0
401,1436798096045,84.0
402,1436798096064,84.0
403,1436798096084,84.0
404,1436798096101,84.0
405,1436798096129,84.0
406,1436798096146,84.0
407,1436798096161,84.0
408,1436798096181,84.0
409,1436798096202,84.0
410,1436798096222,84.0
411,1436798096247,84.0
412,1436798096265,84.0
413,1436798096283,84.0
414,1436798096305,84.0
415,1436798096325,84.0
416,1436798096342,84.0
417,1436798096365,83.0
418,1436798096386,83.0
419,1436798096405,83.0
420,1436798096425,83.0
421,1436798096445,83.0
422,1436798096465,83.0
423,1436798096486,83.0
424,1436798096503,83.0
425,1436798096525,83.0
426,1436798096545,83.0
427,1436798096565,83.0
428,1436798096583,84.0
429,1436798096605,84.0
430,1436798096625,83.0
431,1436798096645,83.0
432,1436798096666,83.0
433,1436798096686,83.0
434,1436798096706,83.0
435,1436798096726,83.0
436,1436798096745,83.0
437,1436798096768,83.0
438,1436798096824,83.0
439,1436798096825,83.0
440,1436798096826,83.0
441,1436798096848,83.0
442,1436798096866,83.0
443,1436798096886,83.0
444,1436798096909,83.0
445,1436798096925,83.0
446,1436798096944,83.0
447,1436798096970,83.0
448,1436798096985,83.0
449,1436798097004,83.0
450,1436798097028,83.0
451,1436798097044,83.0
452,1436798097065,83.0
453,1436798097086,83.0
454,1436798097106,84.0
455,1436798097149,84.0
456,1436798097150,84.0
457,1436798097165,84.0
458,1436798097186,83.0
459,1436798097205,83.0
460,1436798097226,83.0
461,1436798097246,83.0
462,1436798097266,83.0
463,1436798097284,83.0
464,1436798097306,83.0
465,1436798097325,84.0
466,1436798097343,84.0
467,1436798097365,83.0
468,1436798097388,83.0
469,1436798097408,83.0
470,1436798097428,83.0
471,1436798097446,83.0
472,1436798097465,83.0
473,1436798097483,84.0
474,1436798097506,84.0
475,1436798097525,83.0
476,1436798097543,83.0
477,1436798097612,84.0
478,1436798097613,84.0
479,1436798097614,84.0
480,1436798097623,84.0
481,1436798097648,84.0
482,1436798097666,84.0
483,1436798097688,85.0
484,1436798097705,85.0
485,1436798097723,84.0
486,1436798097747,84.0
487,1436798097768,84.0
488,1436798097784,84.0
489,1436798097804,84.0
490,1436798097827,84.0
491,1436798097850,84.0
492,1436798097866,84.0
493,1436798097886,84.0
494,1436798097912,84.0
495,1436798097926,84.0
496,1436798097946,84.0
497,1436798097965,84.0
498,1436798097988,84.0
499,1436798098005,84.0
500,1436798098030,84.0
501,1436798098045,84.0
502,1436798098068,83.0
503,1436798098087,83.0
504,1436798098106,83.0
505,1436798098127,83.0
506,1436798098147,83.0
507,1436798098167,83.0
508,1436798098187,83.0
509,1436798098207,83.0
510,1436798098228,82.0
511,1436798098245,82.0
512,1436798098273,83.0
513,1436798098329,83.0
514,1436798098330,83.0
515,1436798098331,83.0
516,1436798098351,83.0
517,1436798098364,83.0
518,1436798098394,83.0
519,1436798098410,83.0
520,1436798098425,83.0
521,1436798098444,83.0
522,1436798098464,83.0
523,1436798098484,83.0
524,1436798098505,83.0
525,1436798098525,83.0
526,1436798098545,83.0
527,1436798098568,83.0
528,1436798098585,83.0
529,1436798098607,83.0
530,1436798098627,83.0
531,1436798098647,83.0
532,1436798098666,83.0
533,1436798098687,83.0
534,1436798098707,83.0
535,1436798098728,83.0
536,1436798098746,83.0
537,1436798098767,84.0
538,1436798098796,84.0
539,1436798098835,84.0
540,1436798098836,84.0
541,1436798098850,84.0
542,1436798098876,84.0
543,1436798098886,84.0
544,1436798098905,84.0
545,1436798098926,84.0
546,1436798098950,84.0
547,1436798098996,84.0
548,1436798098997,84.0
549,1436798099109,85.0
550,1436798099110,85.0
551,1436798099111,84.0
552,1436798099112,84.0
553,1436798099113,85.0
554,1436798099114,85.0
555,1436798099133,85.0
556,1436798099147,85.0
557,1436798099166,85.0
558,1436798099185,85.0
559,1436798099204,85.0
560,1436798099225,85.0
561,1436798099244,85.0
562,1436798099264,85.0
563,1436798099286,85.0
564,1436798099307,85.0
565,1436798099326,86.0
566,1436798099345,86.0
567,1436798099368,86.0
568,1436798099388,86.0
569,1436798099408,86.0
570,1436798099425,86.0
571,1436798099449,86.0
572,1436798099466,86.0
573,1436798099488,86.0
574,1436798099508,86.0
575,1436798099524,85.0
576,1436798099546,85.0
577,1436798099568,85.0
578,1436798099585,86.0
579,1436798099608,86.0
580,1436798099627,86.0
581,1436798099647,86.0
582,1436798099667,86.0
583,1436798099687,86.0
584,1436798099706,86.0
585,1436798099729,86.0
586,1436798099793,87.0
587,1436798099794,87.0
588,1436798099795,88.0
589,1436798099805,88.0
590,1436798099830,88.0
591,1436798099848,88.0
592,1436798099865,88.0
593,1436798099886,88.0
594,1436798099905,88.0
595,1436798099926,88.0
596,1436798099946,88.0
597,1436798099983,88.0
598,1436798099986,88.0
599,1436798100028,88.0
600,1436798100029,87.0
601,1436798100046,87.0
602,1436798100066,87.0
603,1436798100086,87.0
604,1436798100140,88.0
605,1436798100141,88.0
606,1436798100145,88.0
607,1436798100166,88.0
608,1436798100187,87.0
609,1436798100207,87.0
610,1436798100226,86.0
611,1436798100246,86.0
612,1436798100269,87.0
613,1436798100295,87.0
614,1436798100305,87.0
615,1436798100325,87.0
616,1436798100345,87.0
617,1436798100365,87.0
618,1436798100385,87.0
619,1436798100405,87.0
620,1436798100425,87.0
621,1436798100445,88.0
622,1436798100468,88.0
623,1436798100487,88.0
624,1436798100505,88.0
625,1436798100526,87.0
626,1436798100546,87.0
627,1436798100566,87.0
628,1436798100587,87.0
629,1436798100606,87.0
630,1436798100629,87.0
631,1436798100649,88.0
632,1436798100669,88.0
633,1436798100688,88.0
634,1436798100710,88.0
635,1436798100730,89.0
636,1436798100750,89.0
637,1436798100769,89.0
638,1436798100790,89.0
639,1436798100810,89.0
640,1436798100826,89.0
641,1436798100850,89.0
642,1436798100867,89.0
643,1436798100890,89.0
644,1436798100910,89.0
645,1436798100929,89.0
646,1436798100950,89.0
647,1436798100969,90.0
648,1436798100989,90.0
649,1436798101010,90.0
650,1436798101030,90.0
651,1436798101048,90.0
652,1436798101066,90.0
653,1436798101089,90.0
654,1436798101121,90.0
655,1436798101127,91.0
656,1436798101147,90.0
657,1436798101167,90.0
658,1436798101187,90.0
659,1436798101207,90.0
660,1436798101228,90.0
661,1436798101251,90.0
662,1436798101268,90.0
663,1436798101290,90.0
664,1436798101310,90.0
665,1436798101330,90.0
666,1436798101349,90.0
667,1436798101370,90.0
668,1436798101389,90.0
669,1436798101410,90.0
670,1436798101430,89.0
671,1436798101448,89.0
672,1436798101469,89.0
673,1436798101490,89.0
674,1436798101507,89.0
675,1436798101530,89.0
676,1436798101548,89.0
677,1436798101567,89.0
678,1436798101587,89.0
679,1436798101613,89.0
680,1436798101629,89.0
681,1436798101653,89.0
682,1436798101669,89.0
683,1436798101689,89.0
684,1436798101708,89.0
685,1436798101729,89.0
686,1436798101749,89.0
687,1436798101775,89.0
688,1436798101832,89.0
689,1436798101833,89.0
690,1436798101834,89.0
691,1436798101854,89.0
692,1436798101868,89.0
693,1436798101892,89.0
694,1436798101907,89.0
695,1436798101928,89.0
696,1436798101949,89.0
697,1436798101969,89.0
698,1436798101988,89.0
699,1436798102008,89.0
700,1436798102031,89.0
701,1436798102049,89.0
702,1436798102071,89.0
703,1436798102088,89.0
704,1436798102110,89.0
705,1436798102131,89.0
706,1436798102151,89.0
707,1436798102171,89.0
708,1436798102188,89.0
709,1436798102210,89.0
710,1436798102230,89.0
711,1436798102249,88.0
712,1436798102271,88.0
713,1436798102292,88.0
714,1436798102310,88.0
715,1436798102329,88.0
716,1436798102351,88.0
717,1436798102371,87.0
718,1436798102391,87.0
719,1436798102410,87.0
720,1436798102431,87.0
721,1436798102451,87.0
722,1436798102470,87.0
723,1436798102491,87.0
724,1436798102516,87.0
725,1436798102563,87.0
726,1436798102564,87.0
727,1436798102568,88.0
728,1436798102588,88.0
729,1436798102608,88.0
730,1436798102628,88.0
731,1436798102648,88.0
732,1436798102668,88.0
733,1436798102690,88.0
734,1436798102708,88.0
735,1436798102729,88.0
736,1436798102751,88.0
737,1436798102769,88.0
738,1436798102789,88.0
739,1436798102809,88.0
740,1436798102832,88.0
741,1436798102852,88.0
742,1436798102872,88.0
743,1436798102892,88.0
744,1436798102909,88.0
745,1436798102930,88.0
746,1436798102952,87.0
747,1436798102972,87.0
748,1436798102990,86.0
749,1436798103008,86.0
750,1436798103029,87.0
751,1436798103050,87.0
752,1436798103072,87.0
753,1436798103089,87.0
754,1436798103113,87.0
755,1436798103131,87.0
756,1436798103150,88.0
757,1436798103172,88.0
758,1436798103192,88.0
759,1436798103209,88.0
760,1436798103229,88.0
761,1436798103259,88.0
762,1436798103313,88.0
763,1436798103314,88.0
764,1436798103315,88.0
765,1436798103338,88.0
766,1436798103349,88.0
767,1436798103372,88.0
768,1436798103389,88.0
769,1436798103411,88.0
770,1436798103431,88.0
771,1436798103449,88.0
772,1436798103472,88.0
773,1436798103494,88.0
774,1436798103510,88.0
775,1436798103530,89.0
776,1436798103550,89.0
777,1436798103572,89.0
778,1436798103590,89.0
779,1436798103610,89.0
780,1436798103631,89.0
781,1436798103652,88.0
782,1436798103669,88.0
783,1436798103690,88.0
784,1436798103712,88.0
785,1436798103734,89.0
786,1436798103750,89.0
787,1436798103775,89.0
788,1436798103793,89.0
789,1436798103814,89.0
790,1436798103830,89.0
791,1436798103850,89.0
792,1436798103870,89.0
793,1436798103889,88.0
794,1436798103909,88.0
795,1436798103936,88.0
796,1436798103949,88.0
797,1436798103970,88.0
798,1436798103996,88.0
799,1436798104046,88.0
800,1436798104047,88.0
801,1436798104050,88.0
802,1436798104075,88.0
803,1436798104089,88.0
804,1436798104113,88.0
805,1436798104130,88.0
806,1436798104150,88.0
807,1436798104174,88.0
808,1436798104190,88.0
809,1436798104210,89.0
810,1436798104230,89.0
811,1436798104250,90.0
812,1436798104271,90.0
813,1436798104290,91.0
814,1436798104312,91.0
815,1436798104333,92.0
816,1436798104353,92.0
817,1436798104373,92.0
818,1436798104393,92.0
819,1436798104412,92.0
820,1436798104433,91.0
821,1436798104451,91.0
822,1436798104473,91.0
823,1436798104493,91.0
824,1436798104510,91.0
825,1436798104531,91.0
826,1436798104551,91.0
827,1436798104574,91.0
828,1436798104593,91.0
829,1436798104614,91.0
830,1436798104632,91.0
831,1436798104652,91.0
832,1436798104670,91.0
833,1436798104693,91.0
834,1436798104720,91.0
835,1436798104795,91.0
836,1436798104796,90.0
837,1436798104797,90.0
838,1436798104798,90.0
839,1436798104853,90.0
840,1436798104854,89.0
841,1436798104855,89.0
842,1436798104882,88.0
843,1436798104890,88.0
844,1436798104922,89.0
845,1436798104930,89.0
846,1436798104951,89.0
847,1436798104970,89.0
848,1436798104991,89.0
849,1436798105010,89.0
850,1436798105030,89.0
851,1436798105050,89.0
852,1436798105070,88.0
853,1436798105090,88.0
854,1436798105111,88.0
855,1436798105130,88.0
856,1436798105151,88.0
857,1436798105171,89.0
858,1436798105191,89.0
859,1436798105211,89.0
860,1436798105231,89.0
861,1436798105254,89.0
862,1436798105274,89.0
863,1436798105291,88.0
864,1436798105311,88.0
865,1436798105331,88.0
866,1436798105354,88.0
867,1436798105374,88.0
868,1436798105393,88.0
869,1436798105414,88.0
870,1436798105431,88.0
871,1436798105452,87.0
872,1436798105474,87.0
873,1436798105490,86.0
