id,attr_time,attr_x,attr_y,attr_z
1,1437500851922,29.9896,25.7446,-15.2786
2,1437500851944,30.5145,26.6235,-16.4551
3,1437500851963,28.5873,26.4465,-15.6143
4,1437500851982,28.5873,26.4465,-15.6143
5,1437500852000,30.8655,25.5676,-15.4465
6,1437500852022,31.7413,26.0956,-13.5971
7,1437500852043,31.7413,26.0956,-13.5971
8,1437500852061,29.2877,26.4465,-15.6143
9,1437500852081,29.8141,26.9745,-14.7736
10,1437500852101,29.8141,26.9745,-14.7736
11,1437500852121,31.3904,27.5024,-15.2786
12,1437500852143,28.7628,27.6779,-14.1006
13,1437500852160,28.7628,27.6779,-14.1006
14,1437500852179,30.3391,28.2043,-15.2786
15,1437500852201,29.2877,26.799,-15.9515
16,1437500852219,29.2877,26.799,-15.9515
17,1437500852242,30.8655,27.3254,-14.7736
18,1437500852260,28.9383,25.7446,-15.2786
19,1437500852279,28.9383,25.7446,-15.2786
20,1437500852299,31.2149,26.6235,-15.7822
21,1437500852317,29.8141,27.3254,-15.7822
22,1437500852341,29.8141,27.3254,-15.7822
23,1437500852357,29.8141,26.6235,-16.4551
24,1437500852378,28.4119,27.3254,-13.765
25,1437500852398,28.4119,27.3254,-13.765
26,1437500852417,29.6387,26.799,-16.2872
27,1437500852438,29.4632,26.6235,-14.7736
28,1437500852457,29.4632,26.6235,-14.7736
29,1437500852477,29.9896,27.8534,-15.2786
30,1437500852497,29.9896,27.8534,-14.9414
31,1437500852516,29.9896,27.8534,-14.9414
32,1437500852536,28.5873,28.2043,-13.9328
33,1437500852556,28.2364,27.15,-14.27
34,1437500852576,28.2364,27.15,-14.27
35,1437500852595,29.9896,28.2043,-14.6057
36,1437500852616,26.4847,27.8534,-13.2599
37,1437500852634,26.4847,27.8534,-13.2599
38,1437500852655,28.5873,27.8534,-14.27
39,1437500852675,29.1138,27.6779,-13.4293
40,1437500852694,29.1138,27.6779,-13.4293
41,1437500852714,27.1866,27.8534,-12.9242
42,1437500852735,26.6602,26.6235,-11.0748
43,1437500852754,26.6602,26.6235,-11.0748
44,1437500852774,28.0624,27.3254,-12.7563
45,1437500852794,28.2364,26.799,-11.2427
46,1437500852811,28.2364,26.799,-11.2427
47,1437500852833,27.3605,26.9745,-11.4105
48,1437500852851,26.6602,27.6779,-11.0748
49,1437500852872,26.6602,27.6779,-11.0748
50,1437500852892,26.3092,29.0833,-7.71027
51,1437500852911,25.9598,30.1392,-7.71027
52,1437500852932,25.9598,30.1392,-7.71027
53,1437500852950,25.6088,29.0833,-8.7204
54,1437500852974,22.6303,30.6656,-5.8609
55,1437500852991,22.6303,30.6656,-5.8609
56,1437500853011,22.4564,30.8411,-4.34723
57,1437500853031,21.0541,30.1392,-5.35736
58,1437500853050,21.0541,30.1392,-5.35736
59,1437500853072,20.3537,31.897,-4.68445
60,1437500853090,18.9514,30.1392,-4.34723
61,1437500853109,18.9514,30.1392,-4.34723
62,1437500853130,17.7246,32.4234,-2.83356
63,1437500853150,15.097,33.6548,-2.66571
64,1437500853170,15.097,33.6548,-2.66571
65,1437500853188,15.7989,34.0057,-1.32141
66,1437500853209,12.645,33.6548,-0.648499
67,1437500853229,12.645,33.6548,-0.648499
68,1437500853248,12.1185,35.2356,0.192261
69,1437500853270,8.61511,33.4778,2.211
70,1437500853288,8.61511,33.4778,2.211
71,1437500853307,8.26416,34.5337,0.52948
72,1437500853328,2.83356,33.3023,1.03302
73,1437500853347,2.83356,33.3023,1.03302
74,1437500853369,1.9577,35.2356,0.52948
75,1437500853387,-2.07214,32.5989,1.70593
76,1437500853406,-2.07214,32.5989,1.70593
77,1437500853427,-1.89667,34.1812,2.88391
78,1437500853445,-3.64838,34.8846,2.88391
79,1437500853468,-3.64838,34.8846,2.88391
80,1437500853484,-2.948,35.2356,0.865173
81,1437500853505,-4.1748,35.4126,0.0244141
82,1437500853524,-4.1748,35.4126,0.0244141
83,1437500853547,-3.4729,33.3023,-0.648499
84,1437500853565,-6.97784,33.3023,1.37024
85,1437500853584,-6.97784,33.3023,1.37024
86,1437500853605,-7.50275,32.7759,0.865173
87,1437500853624,-8.20312,34.5337,0.52948
88,1437500853644,-8.20312,34.5337,0.52948
89,1437500853663,-6.97784,32.5989,0.0244141
90,1437500853684,-5.92651,33.3023,1.03302
91,1437500853704,-5.92651,33.3023,1.03302
92,1437500853723,-5.40009,33.4778,3.2196
93,1437500853745,-5.57556,34.3567,5.40619
94,1437500853760,-5.57556,34.3567,5.40619
95,1437500853782,-8.02765,33.6548,5.40619
96,1437500853802,-9.78088,32.2479,5.06897
97,1437500853822,-9.78088,32.2479,5.06897
98,1437500853842,-12.0575,30.6656,5.23834
99,1437500853861,-13.1088,31.369,5.23834
100,1437500853880,-13.1088,31.369,5.23834
101,1437500853901,-13.9847,30.4901,6.41479
102,1437500853921,-10.3058,32.0725,5.57404
103,1437500853943,-10.3058,32.0725,5.57404
104,1437500853960,-9.25446,31.369,0.192261
105,1437500853979,-8.55408,33.8303,0.865173
106,1437500854000,-8.55408,33.8303,0.865173
107,1437500854019,-12.0575,34.1812,1.53809
108,1437500854040,-14.8605,31.72,0.52948
109,1437500854059,-14.8605,31.72,0.52948
110,1437500854077,-15.5624,29.9622,1.87378
111,1437500854099,-15.387,28.0289,-1.6571
112,1437500854117,-15.387,28.0289,-1.6571
113,1437500854140,-18.7149,28.9078,-3.50647
114,1437500854158,-19.2413,27.3254,-5.02014
115,1437500854177,-19.2413,27.3254,-5.02014
116,1437500854198,-19.5908,27.6779,-2.66571
117,1437500854218,-16.9632,28.5568,0.52948
118,1437500854237,-16.9632,28.5568,0.52948
119,1437500854257,-17.8391,28.0289,4.06036
120,1437500854277,-17.3141,27.15,7.59125
121,1437500854296,-17.3141,27.15,7.59125
122,1437500854316,-15.9119,28.5568,10.2829
123,1437500854337,-16.4383,28.7323,5.40619
124,1437500854356,-16.4383,28.7323,5.40619
125,1437500854375,-14.8605,29.2603,6.91986
126,1437500854394,-12.9334,31.5445,4.39758
127,1437500854415,-12.9334,31.5445,4.39758
128,1437500854437,-11.882,33.6548,-1.6571
129,1437500854455,-10.8322,32.2479,-6.02875
130,1437500854474,-10.8322,32.2479,-6.02875
131,1437500854495,-9.78088,32.5989,-4.68445
132,1437500854514,-9.07898,34.0057,-5.35736
133,1437500854534,-9.07898,34.0057,-5.35736
134,1437500854554,-9.07898,32.5989,-5.02014
135,1437500854574,-10.4813,32.2479,-6.36597
136,1437500854593,-10.4813,32.2479,-6.36597
137,1437500854612,-9.25446,32.4234,-7.54242
138,1437500854633,-6.45142,32.7759,-7.20673
139,1437500854652,-6.45142,32.7759,-7.20673
140,1437500854672,-6.45142,33.8303,-4.51508
141,1437500854691,-5.92651,34.0057,-0.984192
142,1437500854710,-5.92651,34.0057,-0.984192
143,1437500854732,-7.15179,32.4234,2.54669
144,1437500854751,-9.42993,33.3023,4.73328
145,1437500854774,-9.42993,33.3023,4.73328
146,1437500854791,-8.72955,31.1935,5.74188
147,1437500854811,-10.4813,33.3023,5.06897
148,1437500854831,-10.4813,33.3023,5.06897
149,1437500854849,-7.50275,32.7759,2.54669
150,1437500854870,-8.3786,34.0057,4.06036
151,1437500854888,-8.3786,34.0057,4.06036
152,1437500854909,-6.97784,32.2479,2.37885
153,1437500854929,-7.8537,34.8846,1.53809
154,1437500854949,-7.8537,34.8846,1.53809
155,1437500854970,-8.55408,32.7759,0.865173
156,1437500854989,-10.6567,32.7759,-0.143433
157,1437500855007,-10.6567,32.7759,-0.143433
158,1437500855029,-12.233,31.897,2.04315
159,1437500855047,-16.4383,31.1935,1.37024
160,1437500855070,-16.4383,31.1935,1.37024
161,1437500855086,-17.1387,30.1392,0.361633
162,1437500855108,-17.8391,28.3813,0.0244141
163,1437500855126,-17.8391,28.3813,0.0244141
164,1437500855147,-19.5908,26.2711,-0.984192
165,1437500855166,-18.19,28.3813,-0.311279
166,1437500855186,-18.19,28.3813,-0.311279
167,1437500855205,-18.0145,27.5024,1.20239
168,1437500855227,-16.7877,28.7323,2.37885
169,1437500855245,-16.7877,28.7323,2.37885
170,1437500855268,-13.8092,30.6656,7.25555
171,1437500855286,-14.5111,30.3146,5.90973
172,1437500855305,-14.5111,30.3146,5.90973
173,1437500855325,-11.882,30.8411,7.4234
174,1437500855344,-11.5326,31.1935,8.09631
175,1437500855367,-11.5326,31.1935,8.09631
176,1437500855383,-10.6567,31.0181,4.56543
177,1437500855404,-13.2843,34.0057,4.39758
178,1437500855424,-13.2843,34.0057,4.39758
179,1437500855444,-12.0575,31.369,2.88391
180,1437500855464,-12.5839,30.4901,5.74188
181,1437500855483,-12.5839,30.4901,5.74188
182,1437500855502,-13.6353,31.897,5.74188
183,1437500855522,-18.7149,28.2043,3.89252
184,1437500855542,-18.7149,28.2043,3.89252
185,1437500855562,-18.3655,28.5568,3.2196
186,1437500855582,-18.8904,27.3254,-1.32141
187,1437500855602,-18.8904,27.3254,-1.32141
188,1437500855622,-19.0659,28.9078,-0.816345
189,1437500855642,-18.0145,27.5024,1.20239
190,1437500855661,-18.0145,27.5024,1.20239
191,1437500855681,-18.19,27.6779,4.06036
192,1437500855701,-16.4383,26.6235,8.43353
193,1437500855720,-16.4383,26.6235,8.43353
194,1437500855739,-16.6122,28.2043,9.27429
195,1437500855762,-17.1387,25.9201,11.7966
196,1437500855780,-17.1387,25.9201,11.7966
197,1437500855800,-13.8092,26.4465,18.0176
198,1437500855820,-14.3356,25.5676,14.151
199,1437500855837,-14.3356,25.5676,14.151
200,1437500855859,-12.5839,30.8411,8.09631
201,1437500855877,-12.233,29.7867,4.73328
202,1437500855899,-12.233,29.7867,4.73328
203,1437500855918,-11.7081,32.4234,3.89252
204,1437500855938,-11.7081,30.6656,6.91986
205,1437500855958,-11.7081,30.6656,6.91986
206,1437500855978,-14.8605,28.2043,11.6272
207,1437500856000,-15.5624,25.7446,12.6373
208,1437500856017,-15.5624,25.7446,12.6373
209,1437500856037,-17.1387,26.6235,11.7966
210,1437500856057,-17.1387,27.6779,7.76062
211,1437500856076,-17.1387,27.6779,7.76062
212,1437500856099,-17.8391,28.7323,6.0791
213,1437500856116,-18.0145,29.2603,5.90973
214,1437500856136,-18.0145,29.2603,5.90973
215,1437500856154,-17.1387,28.3813,5.74188
216,1437500856175,-15.036,28.0289,10.7864
217,1437500856197,-15.036,28.0289,10.7864
218,1437500856215,-13.4598,28.2043,11.9644
219,1437500856235,-15.7364,27.3254,16.8411
220,1437500856252,-15.7364,27.3254,16.8411
221,1437500856273,-13.8092,28.5568,13.6459
222,1437500856297,-12.0575,32.7759,11.6272
223,1437500856314,-12.0575,32.7759,11.6272
224,1437500856333,-9.07898,32.2479,6.75049
225,1437500856354,-8.02765,32.9514,2.37885
226,1437500856372,-8.02765,32.9514,2.37885
227,1437500856395,-9.25446,31.72,5.23834
228,1437500856413,-11.5326,30.1392,9.44214
229,1437500856432,-11.5326,30.1392,9.44214
230,1437500856453,-12.0575,28.9078,11.2915
231,1437500856471,-17.1387,26.9745,12.4695
232,1437500856494,-17.1387,26.9745,12.4695
233,1437500856510,-17.6636,27.5024,8.60138
234,1437500856532,-19.4153,28.2043,7.92847
235,1437500856552,-19.4153,28.2043,7.92847
236,1437500856571,-18.3655,26.799,7.92847
237,1437500856591,-17.8391,25.5676,7.76062
238,1437500856611,-17.8391,25.5676,7.76062
239,1437500856630,-16.4383,29.0833,6.41479
240,1437500856649,-15.387,30.1392,7.08771
241,1437500856670,-15.387,30.1392,7.08771
242,1437500856689,-15.7364,29.4357,10.4507
243,1437500856710,-14.1602,25.3922,17.009
244,1437500856729,-14.1602,25.3922,17.009
245,1437500856749,-13.4598,24.3378,19.0277
246,1437500856769,-10.6567,28.2043,14.9918
247,1437500856790,-10.6567,28.2043,14.9918
248,1437500856808,-10.8322,30.1392,10.4507
249,1437500856830,-14.3356,31.1935,7.76062
250,1437500856847,-14.3356,31.1935,7.76062
251,1437500856867,-12.0575,31.0181,9.94568
252,1437500856888,-14.5111,28.5568,8.93707
253,1437500856907,-14.5111,28.5568,8.93707
254,1437500856929,-18.0145,26.4465,9.94568
255,1437500856947,-18.8904,26.2711,12.1323
256,1437500856965,-18.8904,26.2711,12.1323
257,1437500856987,-20.2927,26.6235,10.4507
258,1437500857005,-19.9417,25.2167,10.1151
259,1437500857028,-19.9417,25.2167,10.1151
260,1437500857045,-19.5908,26.2711,11.7966
261,1437500857066,-19.7662,27.5024,11.6272
262,1437500857085,-19.7662,27.5024,11.6272
263,1437500857105,-18.19,25.2167,11.1237
264,1437500857123,-18.19,26.9745,12.1323
265,1437500857144,-18.19,26.9745,12.1323
266,1437500857164,-17.4896,25.5676,13.4781
267,1437500857184,-18.19,19.9432,23.2315
268,1437500857204,-18.19,19.9432,23.2315
269,1437500857224,-14.1602,21.1731,24.7452
270,1437500857244,-13.4598,23.2834,22.3907
271,1437500857263,-13.4598,23.2834,22.3907
272,1437500857282,-14.8605,25.7446,20.372
273,1437500857303,-15.387,25.9201,16.5054
274,1437500857324,-15.387,25.9201,16.5054
275,1437500857342,-16.9632,24.6887,14.9918
276,1437500857362,-19.0659,25.7446,17.009
277,1437500857382,-19.0659,25.7446,17.009
278,1437500857401,-20.1172,23.9868,15.6631
279,1437500857424,-19.9417,23.4589,15.1596
280,1437500857441,-19.9417,23.4589,15.1596
281,1437500857461,-22.0444,23.1079,13.8138
282,1437500857481,-20.1172,22.229,14.6545
283,1437500857499,-20.1172,22.229,14.6545
284,1437500857522,-20.6421,22.4045,17.514
285,1437500857540,-19.7662,20.4712,18.0176
286,1437500857560,-19.7662,20.4712,18.0176
287,1437500857580,-20.1172,23.6343,15.6631
288,1437500857598,-19.2413,20.6467,17.8497
289,1437500857621,-19.2413,20.6467,17.8497
290,1437500857638,-18.5394,16.7786,24.5758
291,1437500857659,-19.9417,13.9664,28.6118
292,1437500857679,-19.9417,13.9664,28.6118
293,1437500857698,-16.4383,15.7242,27.9404
294,1437500857719,-15.5624,18.3609,26.4267
295,1437500857738,-15.5624,18.3609,26.4267
296,1437500857757,-16.0873,19.9432,23.2315
297,1437500857778,-17.4896,20.6467,21.2128
298,1437500857797,-17.4896,20.6467,21.2128
299,1437500857818,-17.3141,24.3378,19.6991
300,1437500857836,-20.993,22.7554,17.8497
301,1437500857856,-20.993,22.7554,17.8497
302,1437500857880,-20.4666,22.58,17.009
303,1437500857895,-20.993,22.7554,15.8325
304,1437500857914,-20.993,22.7554,15.8325
305,1437500857935,-21.1685,23.2834,13.6459
306,1437500857957,-20.4666,23.2834,12.6373
307,1437500857975,-20.4666,23.2834,12.6373
308,1437500857995,-19.5908,22.7554,15.1596
309,1437500858015,-18.7149,24.3378,14.6545
310,1437500858034,-18.7149,24.3378,14.6545
311,1437500858055,-18.8904,23.8098,14.151
312,1437500858074,-19.2413,25.5676,11.7966
313,1437500858092,-19.2413,25.5676,11.7966
314,1437500858114,-21.3425,24.5132,13.4781
315,1437500858133,-16.2628,20.4712,22.0535
316,1437500858155,-16.2628,20.4712,22.0535
317,1437500858172,-16.6122,18.7134,25.7538
318,1437500858193,-17.4896,19.9432,24.913
319,1437500858212,-17.4896,19.9432,24.913
320,1437500858231,-16.0873,21.3501,21.55
321,1437500858255,-15.9119,23.2834,16.3361
322,1437500858271,-15.9119,23.2834,16.3361
323,1437500858291,-18.7149,28.5568,8.93707
324,1437500858312,-18.19,27.3254,4.06036
325,1437500858331,-18.19,27.3254,4.06036
326,1437500858353,-18.0145,27.8534,1.53809
327,1437500858371,-17.4896,27.3254,2.37885
328,1437500858390,-17.4896,27.3254,2.37885
329,1437500858409,-15.2115,28.2043,5.90973
330,1437500858430,-15.387,29.4357,6.0791
331,1437500858449,-15.387,29.4357,6.0791
332,1437500858469,-15.7364,29.7867,5.06897
333,1437500858489,-13.4598,29.2603,7.25555
334,1437500858508,-13.4598,29.2603,7.25555
335,1437500858529,-12.0575,30.3146,8.26416
336,1437500858550,-12.5839,30.4901,8.09631
337,1437500858568,-12.5839,30.4901,8.09631
338,1437500858588,-11.7081,31.369,3.2196
339,1437500858609,-10.3058,28.9078,8.60138
340,1437500858628,-10.3058,28.9078,8.60138
341,1437500858650,-9.60541,30.6656,10.6186
342,1437500858667,-8.3786,30.8411,5.74188
343,1437500858687,-8.3786,30.8411,5.74188
344,1437500858707,-6.97784,32.5989,0.361633
345,1437500858725,-5.40009,32.7759,-5.18799
346,1437500858749,-5.40009,32.7759,-5.18799
347,1437500858765,-2.59705,32.4234,-15.2786
348,1437500858786,-4.87518,31.1935,-15.7822
349,1437500858806,-4.87518,31.1935,-15.7822
350,1437500858825,-3.4729,31.897,-11.7462
351,1437500858848,-2.948,34.5337,-5.52521
352,1437500858864,-2.948,34.5337,-5.52521
353,1437500858884,-2.07214,34.0057,0.697327
354,1437500858905,-4.1748,32.5989,3.05176
355,1437500858924,-4.1748,32.5989,3.05176
356,1437500858944,-3.29742,33.8303,0.52948
357,1437500858964,-4.69971,33.4778,-3.17078
358,1437500858983,-4.69971,33.4778,-3.17078
359,1437500859003,-3.99933,33.8303,-9.22394
360,1437500859023,-1.72119,30.8411,-16.7923
361,1437500859042,-1.72119,30.8411,-16.7923
362,1437500859063,3.70941,27.5024,-24.6948
363,1437500859084,2.65808,27.15,-24.3591
364,1437500859102,2.65808,27.15,-24.3591
365,1437500859122,-2.42157,30.8411,-20.8282
366,1437500859142,-1.37024,27.6779,-23.8541
367,1437500859161,-1.37024,27.6779,-23.8541
368,1437500859184,-1.72119,26.6235,-26.8814
369,1437500859201,-2.24762,25.3922,-27.0493
370,1437500859221,-2.24762,25.3922,-27.0493
371,1437500859241,-2.77252,26.2711,-25.1999
372,1437500859261,-5.57556,29.0833,-20.1553
373,1437500859283,-5.57556,29.0833,-20.1553
374,1437500859300,-7.32727,30.4901,-18.8095
375,1437500859320,-7.67822,31.1935,-13.765
376,1437500859340,-7.67822,31.1935,-13.765
377,1437500859357,-7.8537,32.0725,-11.9156
378,1437500859382,-7.50275,32.4234,-7.87964
379,1437500859398,-7.50275,32.4234,-7.87964
380,1437500859419,-8.3786,32.9514,-4.68445
381,1437500859439,-7.8537,32.7759,-3.84369
382,1437500859458,-7.8537,32.7759,-3.84369
383,1437500859480,-9.42993,32.5989,-2.66571
384,1437500859497,-7.8537,32.0725,0.865173
385,1437500859517,-7.8537,32.0725,0.865173
386,1437500859538,-7.8537,31.0181,1.20239
387,1437500859557,-9.42993,31.5445,4.39758
388,1437500859578,-9.42993,31.5445,4.39758
389,1437500859596,-10.6567,33.1268,4.90112
390,1437500859617,-9.42993,32.9514,5.74188
391,1437500859637,-9.42993,32.9514,5.74188
392,1437500859656,-10.1303,32.9514,4.06036
393,1437500859674,-8.72955,31.5445,0.361633
394,1437500859696,-8.72955,31.5445,0.361633
395,1437500859714,-8.90503,33.8303,-4.17938
396,1437500859736,-11.1816,31.897,-0.984192
397,1437500859755,-11.1816,31.897,-0.984192
398,1437500859777,-13.8092,31.72,3.2196
399,1437500859795,-15.387,29.4357,2.04315
400,1437500859814,-15.387,29.4357,2.04315
401,1437500859834,-17.3141,32.0725,2.211
402,1437500859854,-17.4896,26.9745,2.71454
403,1437500859873,-17.4896,26.9745,2.71454
404,1437500859891,-18.7149,28.2043,2.211
405,1437500859913,-19.5908,28.0289,7.76062
406,1437500859931,-19.5908,28.0289,7.76062
407,1437500859953,-18.0145,27.8534,10.6186
408,1437500859975,-16.0873,29.4357,11.7966
409,1437500859991,-16.0873,29.4357,11.7966
410,1437500860012,-16.7877,26.2711,13.1409
411,1437500860031,-16.2628,25.3922,16.0004
412,1437500860051,-16.2628,25.3922,16.0004
413,1437500860071,-15.036,27.3254,15.4953
414,1437500860091,-14.6851,27.6779,13.8138
415,1437500860111,-14.6851,27.6779,13.8138
416,1437500860130,-16.7877,27.6779,10.4507
417,1437500860151,-16.6122,30.3146,4.56543
418,1437500860169,-16.6122,30.3146,4.56543
419,1437500860190,-16.2628,30.3146,2.54669
420,1437500860211,-16.4383,29.4357,6.41479
421,1437500860230,-16.4383,29.4357,6.41479
422,1437500860249,-18.19,28.3813,7.76062
423,1437500860270,-16.4383,29.4357,7.4234
424,1437500860289,-16.4383,29.4357,7.4234
425,1437500860310,-16.0873,29.7867,5.40619
426,1437500860328,-16.6122,29.9622,6.91986
427,1437500860348,-16.6122,29.9622,6.91986
428,1437500860368,-16.2628,28.2043,8.26416
429,1437500860388,-14.6851,29.4357,10.7864
430,1437500860410,-14.6851,29.4357,10.7864
431,1437500860427,-16.6122,29.2603,8.60138
432,1437500860447,-16.9632,29.2603,6.24695
433,1437500860467,-16.9632,29.2603,6.24695
434,1437500860485,-14.6851,27.3254,18.1869
435,1437500860506,-13.4598,26.4465,19.0277
436,1437500860525,-13.4598,26.4465,19.0277
437,1437500860546,-13.1088,28.5568,14.3188
438,1437500860566,-13.6353,30.1392,9.10492
439,1437500860585,-13.6353,30.1392,9.10492
440,1437500860608,-14.1602,32.0725,-0.816345
441,1437500860624,-17.3141,29.9622,-2.16217
442,1437500860645,-17.3141,29.9622,-2.16217
443,1437500860665,-17.1387,30.8411,0.361633
444,1437500860685,-17.6636,28.2043,4.90112
445,1437500860707,-17.6636,28.2043,4.90112
446,1437500860724,-19.0659,28.9078,8.60138
447,1437500860744,-19.4153,27.8534,10.6186
448,1437500860764,-19.4153,27.8534,10.6186
449,1437500860783,-19.5908,25.2167,13.1409
450,1437500860802,-20.8176,23.9868,14.3188
451,1437500860819,-20.8176,23.9868,14.3188
452,1437500860839,-18.7149,25.0412,13.3102
453,1437500860859,-19.5908,25.5676,11.4594
454,1437500860879,-19.5908,25.5676,11.4594
455,1437500860902,-18.7149,26.4465,11.2915
456,1437500860922,-17.1387,22.052,21.8857
457,1437500860941,-17.1387,22.052,21.8857
458,1437500860961,-16.4383,22.4045,24.2401
459,1437500860981,-13.9847,23.1079,22.5586
460,1437500861003,-13.9847,23.1079,22.5586
461,1437500861020,-15.2115,27.5024,16.0004
462,1437500861041,-16.2628,28.5568,10.2829
463,1437500861060,-16.2628,28.5568,10.2829
464,1437500861080,-18.8904,28.3813,6.41479
465,1437500861102,-19.2413,27.6779,8.43353
466,1437500861117,-19.2413,27.6779,8.43353
467,1437500861139,-19.7662,25.0412,9.94568
468,1437500861158,-20.4666,25.3922,13.3102
