id,attr_time,attr_db
1,1437067246126,43.1637524632713
2,1437067246846,41.0665116752681
3,1437067247558,42.3283212743451
4,1437067248278,39.5117111779538
5,1437067248972,38.3121010333448
6,1437067249654,39.5149953231887
7,1437067250382,45.1462869343347
8,1437067251109,48.1824732299449
9,1437067251788,54.0938107006991
10,1437067252535,63.4409132370109
11,1437067253269,72.4812995607287
12,1437067253972,69.3436191913301
13,1437067254710,72.6677693822596
14,1437067255371,70.9495878640329
15,1437067256118,72.9212364579587
16,1437067256847,70.455971232924
17,1437067257567,69.5777428971888
18,1437067258287,69.7716563366175
19,1437067258988,74.0701249240482
20,1437067259663,69.256926424752
21,1437067260412,71.9013265605835
22,1437067261149,71.7390391024021
23,1437067261883,67.4917374506367
24,1437067262595,63.0425593141705
25,1437067263377,62.5647737428263
26,1437067263978,69.9121009070035
27,1437067264621,70.1987456516413
28,1437067265291,70.5028140727072
29,1437067266005,71.5961289857332
30,1437067266756,69.8983988803742
31,1437067267509,72.0326762721348
32,1437067268249,72.1275722346746
33,1437067268968,72.3343184498589
34,1437067269704,70.0125304710579
35,1437067270426,72.624238736352
36,1437067271172,64.3435253994568
37,1437067271927,71.9732760145117
38,1437067272650,72.2628361555867
39,1437067273387,64.2381408886849
40,1437067274119,69.3226742642708
41,1437067274854,73.133842107092
42,1437067275600,65.3093140903799
43,1437067276351,68.6651660743175
44,1437067277108,72.4978417947374
45,1437067277863,69.9265377154867
46,1437067278587,71.1640382871903
47,1437067279306,70.8038425825632
48,1437067280037,71.0519252723035
49,1437067280768,72.254095486706
50,1437067281496,73.7261659440482
51,1437067282225,72.0836984197841
52,1437067282947,70.1611529572083
53,1437067283677,72.5021550259604
54,1437067284382,71.6013105558607
55,1437067285054,70.8231923967338
56,1437067285755,66.5161530112108
57,1437067286494,61.7473536570512
58,1437067287216,72.4810320303164
59,1437067287893,66.6848264645282
60,1437067288637,70.9830379048752
61,1437067289308,72.3847029217742
62,1437067289951,70.3724922995036
63,1437067290621,74.147365358499
64,1437067291351,70.3567253461867
65,1437067292092,65.2991529273246
66,1437067292822,70.3759660632429
67,1437067293631,69.237493480379
68,1437067294407,71.27716460681
69,1437067295153,71.3251889496123
70,1437067295908,66.7728010191132
71,1437067296656,69.1152261599071
72,1437067297412,71.9494613720227
73,1437067298167,72.8622738770229
74,1437067298892,63.1803940243101
75,1437067299608,72.2688889175327
76,1437067300423,72.4276406395176
77,1437067301161,65.2137537911534
78,1437067301896,70.2028708473398
79,1437067302624,70.0746593721373
80,1437067303365,70.9598250176129
81,1437067304130,68.9460109971303
82,1437067304845,64.7120745512208
83,1437067305561,68.6912804342482
84,1437067306198,70.0885469982231
85,1437067306896,68.4658727450313
86,1437067307626,69.9813023308356
87,1437067308358,70.2375340970026
88,1437067309140,69.7251120694759
89,1437067309847,66.6427310973732
90,1437067310551,61.6617695148563
91,1437067311292,72.2595874630961
92,1437067312014,69.6539086064194
93,1437067312763,70.9396015100272
94,1437067313495,64.4108731830415
95,1437067314220,72.9509852907676
96,1437067314946,73.8693522255271
97,1437067315652,67.3994384627925
98,1437067316308,69.4627209902195
99,1437067317000,71.5254924370136
100,1437067317708,67.4434521119012
101,1437067318445,67.6940960063933
102,1437067319268,73.1598967595786
103,1437067319884,69.6577955064522
104,1437067320557,71.2230840247515
105,1437067321195,71.4090848775228
106,1437067321944,72.5686888956398
107,1437067322667,69.2854901853223
108,1437067323414,72.3757929600694
109,1437067324169,66.9347125230957
110,1437067324845,74.7844825894754
111,1437067326154,69.2848776981641
112,1437067326767,70.4080357500588
113,1437067327497,72.8831692764672
114,1437067328235,70.202655980642
115,1437067328959,66.2610586279785
116,1437067329699,62.6688433014548
117,1437067330491,68.5424560924152
118,1437067331063,66.7537520642575
119,1437067331733,67.9245246628545
120,1437067332466,72.3516525098399
121,1437067333211,71.8255588357007
122,1437067333957,70.1612013858195
123,1437067334715,63.1238869916037
124,1437067335445,72.1769405478582
125,1437067336203,70.0540320983347
126,1437067336925,65.9441880765576
127,1437067337655,72.8751839625519
128,1437067338449,66.4135770288472
129,1437067339199,53.1255133977592
130,1437067339968,68.0382241096181
131,1437067340744,73.3480960956647
132,1437067341455,66.1646056092927
133,1437067342177,71.7753031028754
134,1437067342922,71.7845590387388
135,1437067343663,66.45395838331
136,1437067344366,66.8137915950345
137,1437067345020,68.8447502835845
138,1437067345732,55.937362953906
139,1437067346469,58.230189587403
140,1437067347184,62.4723595513478
141,1437067347864,71.142522360364
142,1437067348599,71.1388594574788
143,1437067349327,59.62855214915
144,1437067350102,70.4865114786303
145,1437067350827,72.3245017525513
146,1437067351513,64.5016011255102
147,1437067352243,70.7837211575007
148,1437067352971,67.0340362145631
149,1437067353725,59.8113043743578
150,1437067354513,66.630007143525
151,1437067355238,70.4407584706491
152,1437067355982,73.3072714410517
153,1437067356725,68.9331451485154
154,1437067357472,65.2653120347474
155,1437067358224,72.1287037195431
156,1437067358950,66.2608138342387
157,1437067359715,65.329173303716
158,1437067360484,70.4997148987676
159,1437067361202,64.0877815571636
160,1437067361873,67.620905253941
161,1437067362611,60.6612686620526
162,1437067363336,69.0109511259451
163,1437067364041,67.6584418184042
164,1437067364768,60.2389422522022
165,1437067365542,71.6096536674829
166,1437067366259,69.0613083616438
167,1437067366986,65.6507363341093
168,1437067367706,65.4924987440269
169,1437067368366,62.7777628322847
170,1437067369134,73.4213640256783
171,1437067369856,68.4313765363149
172,1437067370581,65.2923852521459
173,1437067371302,71.7865591782377
174,1437067372007,70.2793349845692
175,1437067372680,65.1916923642163
176,1437067373404,71.0822129157615
177,1437067374131,70.6735811897405
178,1437067374885,67.8414532955892
179,1437067375632,62.2484522673509
180,1437067376401,71.1020241393215
181,1437067377015,63.8188424679081
182,1437067377659,69.9919968743466
183,1437067378349,64.3189821396978
184,1437067379079,70.0443948125446
185,1437067379809,73.3975819479633
186,1437067380568,68.0410885490389
187,1437067381308,69.5233763822444
188,1437067382049,69.8313314272445
189,1437067382780,65.5652409277565
190,1437067383521,66.9306657201382
191,1437067384230,71.7617250507113
192,1437067384822,65.5509630011393
193,1437067385505,64.6908482541944
194,1437067386244,70.4690911390146
195,1437067386972,65.5011766726247
196,1437067387692,71.208615825186
197,1437067388414,71.4464545740711
198,1437067389112,66.7431084139317
199,1437067389849,63.8717768386428
200,1437067390647,64.5795718985052
201,1437067391381,67.6758395693805
202,1437067392149,69.4721268229156
203,1437067392821,73.2726109168768
204,1437067393548,65.7155385860592
205,1437067394294,69.7702656536771
206,1437067395077,72.0210577948633
207,1437067395813,64.7088527742812
208,1437067396591,66.252958297836
209,1437067397322,65.4861912802475
210,1437067398032,66.8703199624841
211,1437067398698,69.2989335091269
212,1437067399353,64.3953971927466
213,1437067400127,69.3515317601303
214,1437067400872,66.2973317982106
215,1437067401611,72.1586157638351
216,1437067402336,65.2182203169318
217,1437067403090,69.5278669924373
218,1437067403812,72.036280496807
219,1437067404553,68.715869307019
220,1437067405283,70.2519707548907
221,1437067406004,70.4108844465693
222,1437067406771,72.531602630513
223,1437067407492,64.7010581874025
224,1437067408187,65.1135568327012
225,1437067408882,64.2146717950395
226,1437067409556,72.7173072101737
227,1437067410316,67.1310916569002
228,1437067411018,66.0312149624459
229,1437067412602,69.2738418361453
230,1437067413393,67.2022564500879
231,1437067414110,67.2987982779932
232,1437067414878,69.0893635304447
233,1437067415620,60.0116990990908
234,1437067416343,70.926484162709
235,1437067417076,64.1195014438885
236,1437067417788,73.1215811493977
237,1437067418465,70.9582447882174
238,1437067419124,70.6066061385301
239,1437067419854,64.2370376462879
240,1437067420582,67.646860465184
241,1437067421314,65.8913240285176
242,1437067422021,70.8685387696504
243,1437067422661,70.6258606294716
244,1437067423380,70.6678796905346
245,1437067424090,66.8819865949408
246,1437067424855,73.9675393428426
247,1437067425609,71.5109783506778
248,1437067426351,67.9126722832886
249,1437067427025,71.9706495485692
250,1437067428435,63.9595390301112
251,1437067429131,71.9838733413426
252,1437067429819,71.1945358029716
253,1437067430551,67.1882075692288
254,1437067431225,72.980030321618
255,1437067431961,70.8958526711064
256,1437067432738,62.7967424480117
257,1437067433445,68.8110980358398
258,1437067434121,71.4736175115839
259,1437067434898,59.0322060366266
260,1437067435635,65.2159770928731
261,1437067436380,69.0173235320864
262,1437067437110,66.7200766863305
263,1437067437821,72.6078411110321
264,1437067438556,64.9158604217534
265,1437067439305,72.9722132169596
266,1437067439974,70.267706433675
267,1437067440714,63.0008465968996
268,1437067441463,73.2904572373915
269,1437067442203,72.0307434134178
270,1437067442909,64.6894225108322
271,1437067443552,69.6142353328482
272,1437067444236,72.3377893957533
273,1437067445002,63.989569504574
274,1437067445745,71.9316799976843
275,1437067446459,73.0407825412435
276,1437067447140,70.8266524195056
277,1437067447821,71.0068273578751
278,1437067448549,68.6657894299056
279,1437067449262,68.7908313449302
280,1437067451140,71.1719559960525
281,1437067451831,69.2283929508269
282,1437067452595,70.537476832044
283,1437067453348,67.9790784236819
284,1437067454074,69.9771218924471
285,1437067454802,72.0029095516569
286,1437067455583,68.2624581168844
287,1437067456333,68.997887602817
288,1437067457061,71.7705898003768
289,1437067457811,60.0384486793293
290,1437067458539,70.1874801884762
291,1437067459259,64.7281697718355
292,1437067459906,70.5139379182758
293,1437067460593,70.9408584188683
294,1437067461459,72.810418665749
295,1437067462238,66.4019565934995
296,1437067462899,72.0553226497139
297,1437067464621,67.5706034611532
298,1437067465347,69.0923497120553
299,1437067466083,66.322011424937
300,1437067466803,61.5780756398234
301,1437067467489,66.7675083788775
302,1437067468205,62.6319520376468
303,1437067468921,71.601758903139
304,1437067469650,63.3466401969628
305,1437067470307,68.7251714677055
306,1437067471031,68.7604629094789
307,1437067471775,70.1053156467389
308,1437067472510,68.4768742947028
309,1437067473335,69.6735644802043
310,1437067474064,72.2722934229773
311,1437067474786,66.9917127550164
312,1437067475513,70.3644881308284
313,1437067476273,64.0180606608695
314,1437067477007,71.6983858849968
315,1437067477766,69.9779769053771
316,1437067478496,61.4931518658124
317,1437067479230,69.7623250819938
318,1437067479937,71.1941549388708
319,1437067480618,64.4943494957208
320,1437067481358,72.5354877876305
321,1437067482114,71.8965436005537
322,1437067482839,65.050364577154
323,1437067483574,63.0870539718239
324,1437067484346,70.0668103959478
325,1437067485004,67.8434702303132
326,1437067485736,72.6496485213065
327,1437067486471,71.0634264079831
328,1437067487246,67.3584036036886
329,1437067487914,72.4641434796119
330,1437067488652,72.7128836430349
331,1437067489381,63.4673625398233
332,1437067490116,71.455083594809
333,1437067490864,69.4367490651653
334,1437067491546,63.1492253597603
335,1437067492268,69.2352864997537
336,1437067493017,66.3245988368986
337,1437067493734,69.9570820058201
338,1437067494408,62.1261012674629
339,1437067495070,68.7203099344508
340,1437067495774,72.1621469980284
341,1437067496493,69.7370795485672
342,1437067497214,68.5591136465668
343,1437067497930,66.9791590184592
344,1437067498640,71.4158104413
345,1437067499367,59.1159899867544
346,1437067500092,70.5951019652696
347,1437067500792,59.8837382743154
348,1437067501475,68.1277177829185
349,1437067502233,72.4243058498057
350,1437067502969,59.8976162854464
351,1437067503689,71.1338109279277
352,1437067504409,55.316269431491
353,1437067505147,66.6037312030988
354,1437067505868,68.9284249050759
355,1437067506603,71.8319546237667
356,1437067507325,73.0633002198187
357,1437067507961,66.5132779754949
358,1437067508648,70.058943144767
359,1437067509382,67.4441849097626
360,1437067510101,70.3976726700115
361,1437067510800,72.1085075487992
362,1437067511446,59.2545547898671
363,1437067512147,70.7373468342224
364,1437067512883,68.3756186095165
365,1437067513603,66.285500572333
366,1437067514355,63.903574561347
367,1437067515143,71.2234059513472
368,1437067515886,59.0587489767718
369,1437067516607,65.4742328850793
370,1437067517382,70.6724122813465
371,1437067518124,70.1836393952538
372,1437067518835,60.0666656483407
373,1437067519517,69.3905078168202
374,1437067520251,63.9428462364318
375,1437067520967,61.290037212161
376,1437067521681,70.6262192951366
377,1437067522304,70.4531750271441
378,1437067523041,71.2058906113851
379,1437067523765,56.0601210334936
380,1437067524497,72.0287192590228
381,1437067525205,71.3350962122838
382,1437067525877,65.7116104874
383,1437067526628,70.5002560193986
384,1437067527353,72.0808356789209
385,1437067528070,62.6697277568193
386,1437067528819,72.5117905106546
387,1437067529562,74.7184536386634
388,1437067530312,63.5937134967847
389,1437067531027,72.1000051047952
390,1437067531707,74.6600462488188
391,1437067532367,66.9351765427351
392,1437067533129,71.673585054105
393,1437067533838,63.1325717285832
394,1437067534528,70.7756949542119
395,1437067535238,73.2257453182033
396,1437067535966,61.4543508800106
397,1437067536719,67.8598634476861
398,1437067537437,72.4575076575591
399,1437067538184,68.7521712548486
400,1437067538916,67.2919571894727
401,1437067539659,65.7168444876949
402,1437067540389,65.4218928889974
403,1437067541126,70.7454160137897
404,1437067541802,69.2377982537499
405,1437067542481,68.2963497303684
406,1437067543230,68.5566734913138
407,1437067543944,71.7452237028098
408,1437067544662,67.7235100579709
409,1437067545363,63.8245934397192
410,1437067546029,62.0027230363826
411,1437067546791,66.6484300833146
412,1437067547573,70.2443468543433
413,1437067548314,68.9655691668173
414,1437067549035,67.7002720494203
415,1437067549768,65.2473209601534
416,1437067550501,65.6774266692817
417,1437067551214,72.1686470418399
418,1437067551868,71.9632250754664
419,1437067552561,66.5717666442157
420,1437067553299,69.0935352121889
421,1437067554043,68.0154085291197
422,1437067554756,63.3156088221304
423,1437067555453,72.7616784456147
424,1437067556076,68.4960853435791
425,1437067556738,73.6143730029378
426,1437067557462,70.2847594283867
427,1437067558211,68.1999180844895
428,1437067558951,67.3074071314641
429,1437067559679,66.5242349253292
430,1437067560413,66.8627716581702
431,1437067561151,68.6034454351428
432,1437067561899,59.7167733572943
433,1437067562570,63.5958796542741
434,1437067563235,68.048186732151
435,1437067563977,65.2343296912042
436,1437067564698,63.3015072001352
437,1437067565496,72.9628220541564
438,1437067566216,69.4813246486104
439,1437067566949,67.9076774996996
440,1437067567715,68.7142161480786
441,1437067568347,69.1603955620999
442,1437067569023,65.7786685301271
443,1437067569763,65.3402793741571
444,1437067570512,67.3569151183905
445,1437067571245,72.3403430568671
446,1437067571971,68.7514555975944
447,1437067572685,67.9260877943652
448,1437067573345,71.1975671475401
449,1437067574063,69.5147727865179
450,1437067574742,65.8588844152042
451,1437067575423,61.1638134582571
452,1437067576170,71.8312678921338
453,1437067576907,63.5540568363975
454,1437067577698,65.0834739336046
455,1437067578427,74.2775410306796
456,1437067579153,71.9677621314026
457,1437067579888,72.1207297987033
458,1437067580613,67.0454920877987
459,1437067581355,72.469886377391
460,1437067582085,66.6149366388121
461,1437067582774,65.2353841826567
462,1437067583466,62.8306953740969
463,1437067584233,70.730347639594
464,1437067584975,72.5996569614333
465,1437067585694,62.1974307639131
466,1437067586388,70.1926590959087
467,1437067587046,70.6825687745926
468,1437067587716,69.8932836889594
469,1437067588372,67.0968841290535
470,1437067589041,62.2056953411119
471,1437067589753,70.0232657857836
472,1437067590432,71.9350280986923
473,1437067591165,71.2457959286306
474,1437067591914,66.9735885424901
475,1437067592633,67.9748990355205
476,1437067593281,72.1893726274367
477,1437067594035,71.8152159095936
478,1437067594773,67.9642882885758
479,1437067595553,71.6126686981488
480,1437067596298,72.720907555062
481,1437067597037,64.3355856345303
482,1437067597779,70.9052587539636
483,1437067598519,70.6686948816998
484,1437067599258,71.9550765999014
485,1437067600003,68.6983929647781
486,1437067600733,73.0146061172725
487,1437067601452,59.4297011915588
488,1437067602193,71.5809457224004
489,1437067602913,60.2177826404459
490,1437067603622,64.857774100798
491,1437067604344,63.1444462677938
492,1437067605090,72.3847483391896
493,1437067605768,71.85353340952
494,1437067606511,68.2343554843645
495,1437067607311,67.2432126190379
496,1437067608121,68.4169869524211
497,1437067608817,65.7234716283443
498,1437067609541,65.3823230246819
499,1437067610287,62.9101656723163
500,1437067611030,71.0365024249738
501,1437067611775,67.7208375077236
502,1437067612448,66.4002142466784
503,1437067613175,60.0789164723153
504,1437067613842,67.889049803186
505,1437067614564,72.4035343051335
506,1437067615226,72.5731505341002
507,1437067616781,65.6985389379003
508,1437067617470,72.8491393341702
509,1437067618225,66.606158365136
510,1437067618966,64.8598360457948
511,1437067619707,65.5554698441674
512,1437067620418,72.3327909428
513,1437067621216,66.1259340469155
514,1437067621953,69.8896678656869
515,1437067622700,61.2643107309948
516,1437067623382,68.741490241141
517,1437067623997,65.0739688310978
518,1437067624676,70.1909412474187
519,1437067625402,69.5385583962907
520,1437067626163,63.1589815610493
521,1437067626939,73.0565682329471
522,1437067627581,67.9067627078228
523,1437067628220,65.2027047685272
524,1437067628927,68.6241288248324
525,1437067629649,71.0105116719061
526,1437067630380,69.1472386213313
527,1437067631099,72.7285851260014
528,1437067631835,74.2787061558368
529,1437067632582,59.7410038674316
530,1437067633288,72.1689124630129
531,1437067633932,69.3644611462745
532,1437067634608,68.1185875109997
533,1437067636586,68.0759057988745
534,1437067637265,70.2782171852684
535,1437067637990,70.8175672169585
536,1437067638589,68.1432234246965
537,1437067639218,70.5904160609723
538,1437067639833,64.5467495585031
539,1437067640499,67.9907430812519
540,1437067641263,66.0959573823095
541,1437067641993,66.9998882833449
542,1437067642750,65.625149790072
543,1437067643486,72.0393458299591
544,1437067644242,67.8584842234235
545,1437067644911,68.9677699533635
546,1437067645646,58.240334292644
547,1437067646391,68.6470320327225
548,1437067647141,73.1864841879412
549,1437067647880,66.6264092053136
550,1437067648573,69.9207570119071
551,1437067649291,61.1094567627495
552,1437067649986,72.1812011343859
553,1437067650659,60.8727624591539
554,1437067651430,67.3482981964789
555,1437067652164,68.4942709856025
556,1437067652904,64.8046354418498
557,1437067653646,70.1747348128411
558,1437067654413,61.5824033485298
559,1437067655149,69.1782034521144
560,1437067655863,73.4523606680889
561,1437067656659,64.5310728841256
562,1437067657402,69.3897599734894
563,1437067658140,65.6389719411139
564,1437067658888,74.4545908577159
565,1437067659584,65.6422943578632
566,1437067660282,65.0675100936554
567,1437067661034,69.3565692857771
568,1437067661783,70.7872646398222
569,1437067662516,71.3984774641875
570,1437067663248,66.8247827611908
571,1437067663978,60.9335919261271
572,1437067664711,62.6845677724867
573,1437067665332,62.397486031299
574,1437067666018,65.7971428120164
575,1437067667504,71.31129132585
