id,attr_time,attr_light
1,1436608595914,0.0
2,1436608595938,0.0
3,1436608595959,0.0
4,1436608595979,0.0
5,1436608595995,0.0
6,1436608596017,0.0
7,1436608596074,0.0
8,1436608596075,0.0
9,1436608596076,0.0
10,1436608596098,0.0
11,1436608596115,0.0
12,1436608596147,0.0
13,1436608596163,0.0
14,1436608596177,0.0
15,1436608596194,0.0
16,1436608596214,0.0
17,1436608596238,0.0
18,1436608596258,0.0
19,1436608596274,0.0
20,1436608596297,0.0
21,1436608596320,0.0
22,1436608596337,0.0
23,1436608596358,0.0
24,1436608596377,0.0
25,1436608596397,0.0
26,1436608596416,0.0
27,1436608596437,0.0
28,1436608596458,0.0
29,1436608596477,0.0
30,1436608596495,0.0
31,1436608596515,0.0
32,1436608596538,0.0
33,1436608596556,0.0
34,1436608596574,0.0
35,1436608596594,0.0
36,1436608596617,0.0
37,1436608596638,0.0
38,1436608596658,0.0
39,1436608596680,0.0
40,1436608596695,0.0
41,1436608596715,0.0
42,1436608596735,0.0
43,1436608596757,0.0
44,1436608596776,0.0
45,1436608596848,0.0
46,1436608596849,0.0
47,1436608596850,0.0
48,1436608596857,0.0
49,1436608596879,0.0
50,1436608596900,0.0
51,1436608596914,0.0
52,1436608596934,0.0
53,1436608596957,0.0
54,1436608596976,0.0
55,1436608596995,0.0
56,1436608597016,0.0
57,1436608597035,0.0
58,1436608597058,0.0
59,1436608597078,0.0
60,1436608597098,0.0
61,1436608597119,0.0
62,1436608597137,0.0
63,1436608597158,0.0
64,1436608597178,0.0
65,1436608597198,0.0
66,1436608597218,0.0
67,1436608597236,0.0
68,1436608597258,0.0
69,1436608597278,0.0
70,1436608597298,0.0
71,1436608597327,0.0
72,1436608597335,0.0
73,1436608597355,0.0
74,1436608597375,0.0
75,1436608597395,0.0
76,1436608597415,0.0
77,1436608597437,0.0
78,1436608597458,0.0
79,1436608597477,0.0
80,1436608597504,0.0
81,1436608597559,0.0
82,1436608597560,0.0
83,1436608597561,0.0
84,1436608597584,0.0
85,1436608597595,0.0
86,1436608597617,0.0
87,1436608597635,0.0
88,1436608597655,0.0
89,1436608597677,0.0
90,1436608597695,0.0
91,1436608597719,0.0
92,1436608597742,0.0
93,1436608597756,0.0
94,1436608597775,0.0
95,1436608597799,0.0
96,1436608597819,0.0
97,1436608597839,0.0
98,1436608597858,0.0
99,1436608597901,0.0
100,1436608597902,0.0
101,1436608597918,0.0
102,1436608597939,0.0
103,1436608597958,0.0
104,1436608597975,0.0
105,1436608597999,0.0
106,1436608598019,0.0
107,1436608598039,0.0
108,1436608598058,0.0
109,1436608598079,0.0
110,1436608598099,0.0
111,1436608598119,0.0
112,1436608598139,0.0
113,1436608598159,0.0
114,1436608598179,0.0
115,1436608598200,0.0
116,1436608598217,0.0
117,1436608598238,0.0
118,1436608598291,0.0
119,1436608598292,0.0
120,1436608598298,0.0
121,1436608598318,0.0
122,1436608598337,0.0
123,1436608598358,0.0
124,1436608598378,0.0
125,1436608598398,0.0
126,1436608598418,0.0
127,1436608598436,0.0
128,1436608598458,0.0
129,1436608598476,0.0
130,1436608598499,0.0
131,1436608598516,0.0
132,1436608598539,0.0
133,1436608598559,0.0
134,1436608598579,0.0
135,1436608598599,0.0
136,1436608598619,0.0
137,1436608598639,0.0
138,1436608598659,0.0
139,1436608598679,0.0
140,1436608598700,0.0
141,1436608598717,0.0
142,1436608598739,0.0
143,1436608598759,0.0
144,1436608598780,0.0
145,1436608598797,0.0
146,1436608598819,0.0
147,1436608598840,0.0
148,1436608598877,0.0
149,1436608598878,0.0
150,1436608598913,0.0
151,1436608598920,0.0
152,1436608598938,0.0
153,1436608598957,0.0
154,1436608598979,0.0
155,1436608599002,0.0
156,1436608599031,0.0
157,1436608599037,0.0
158,1436608599057,0.0
159,1436608599077,0.0
160,1436608599097,0.0
161,1436608599117,0.0
162,1436608599147,0.0
163,1436608599161,0.0
164,1436608599177,0.0
165,1436608599197,0.0
166,1436608599217,0.0
167,1436608599237,0.0
168,1436608599257,0.0
169,1436608599278,0.0
170,1436608599297,0.0
171,1436608599317,0.0
172,1436608599337,0.0
173,1436608599356,0.0
174,1436608599379,0.0
175,1436608599400,0.0
176,1436608599417,0.0
177,1436608599437,0.0
178,1436608599462,0.0
179,1436608599482,0.0
180,1436608599502,0.0
181,1436608599518,0.0
182,1436608599536,0.0
183,1436608599557,0.0
184,1436608599578,0.0
185,1436608599602,0.0
186,1436608599621,0.0
187,1436608599641,0.0
188,1436608599656,0.0
189,1436608599676,0.0
190,1436608599699,0.0
191,1436608599718,0.0
192,1436608599736,0.0
193,1436608599758,0.0
194,1436608599778,0.0
195,1436608599797,0.0
196,1436608599818,0.0
197,1436608599841,0.0
198,1436608599861,0.0
199,1436608599878,0.0
200,1436608599900,0.0
201,1436608599921,0.0
202,1436608599940,0.0
203,1436608599958,0.0
204,1436608599977,0.0
205,1436608599998,0.0
206,1436608600018,0.0
207,1436608600043,0.0
208,1436608600058,0.0
209,1436608600082,0.0
210,1436608600104,0.0
211,1436608600121,0.0
212,1436608600141,0.0
213,1436608600161,0.0
214,1436608600181,0.0
215,1436608600201,0.0
216,1436608600222,0.0
217,1436608600240,0.0
218,1436608600262,0.0
219,1436608600279,0.0
220,1436608600300,0.0
221,1436608600378,0.0
222,1436608600379,0.0
223,1436608600380,0.0
224,1436608600381,0.0
225,1436608600400,0.0
226,1436608600424,0.0
227,1436608600438,0.0
228,1436608600459,0.0
229,1436608600492,0.0
230,1436608600502,0.0
231,1436608600524,0.0
232,1436608600539,0.0
233,1436608600561,0.0
234,1436608600581,0.0
235,1436608600601,0.0
236,1436608600619,0.0
237,1436608600641,0.0
238,1436608600661,0.0
239,1436608600681,0.0
240,1436608600700,0.0
241,1436608600719,0.0
242,1436608600742,0.0
243,1436608600759,0.0
244,1436608600781,0.0
245,1436608600801,0.0
246,1436608600820,0.0
247,1436608600842,0.0
248,1436608600862,0.0
249,1436608600881,0.0
250,1436608600901,0.0
251,1436608600925,0.0
252,1436608600942,0.0
253,1436608600962,0.0
254,1436608600980,0.0
255,1436608601000,0.0
256,1436608601021,0.0
257,1436608601159,0.0
258,1436608601160,0.0
259,1436608601161,0.0
260,1436608601162,0.0
261,1436608601163,0.0
262,1436608601164,0.0
263,1436608601165,0.0
264,1436608601182,0.0
265,1436608601199,0.0
266,1436608601219,0.0
267,1436608601238,0.0
268,1436608601263,0.0
269,1436608601280,0.0
270,1436608601300,0.0
271,1436608601320,0.0
272,1436608601341,0.0
273,1436608601361,0.0
274,1436608601382,0.0
275,1436608601402,0.0
276,1436608601422,0.0
277,1436608601442,0.0
278,1436608601461,0.0
279,1436608601482,0.0
280,1436608601502,0.0
281,1436608601522,0.0
282,1436608601542,0.0
283,1436608601559,0.0
284,1436608601582,0.0
285,1436608601602,0.0
286,1436608601620,0.0
287,1436608601641,0.0
288,1436608601660,0.0
289,1436608601683,0.0
290,1436608601699,0.0
291,1436608601724,0.0
292,1436608601742,0.0
293,1436608601760,0.0
294,1436608601780,0.0
295,1436608601800,0.0
296,1436608601821,0.0
297,1436608601840,0.0
298,1436608601913,0.0
299,1436608601914,0.0
300,1436608601915,0.0
301,1436608601923,0.0
302,1436608601940,0.0
303,1436608601960,0.0
304,1436608601979,0.0
305,1436608602002,0.0
306,1436608602021,0.0
307,1436608602041,0.0
308,1436608602063,0.0
309,1436608602086,0.0
310,1436608602101,0.0
311,1436608602122,0.0
312,1436608602142,0.0
313,1436608602163,0.0
314,1436608602181,0.0
315,1436608602202,0.0
316,1436608602223,0.0
317,1436608602242,0.0
318,1436608602263,0.0
319,1436608602281,0.0
320,1436608602303,0.0
321,1436608602323,0.0
322,1436608602342,0.0
323,1436608602361,0.0
324,1436608602380,0.0
325,1436608602400,0.0
326,1436608602425,0.0
327,1436608602445,0.0
328,1436608602466,0.0
329,1436608602481,0.0
330,1436608602500,0.0
331,1436608602520,0.0
332,1436608602546,0.0
333,1436608602567,0.0
334,1436608602614,0.0
335,1436608602626,0.0
336,1436608602627,0.0
337,1436608602643,0.0
338,1436608602660,0.0
339,1436608602680,0.0
340,1436608602703,0.0
341,1436608602720,0.0
342,1436608602755,0.0
343,1436608602772,0.0
344,1436608602780,0.0
345,1436608602800,0.0
346,1436608602822,0.0
347,1436608602841,0.0
348,1436608602863,0.0
349,1436608602881,0.0
350,1436608602902,0.0
351,1436608602923,0.0
352,1436608602944,0.0
353,1436608602964,0.0
354,1436608602989,0.0
355,1436608603002,0.0
356,1436608603025,0.0
357,1436608603041,0.0
358,1436608603063,0.0
359,1436608603087,0.0
360,1436608603102,0.0
361,1436608603122,0.0
362,1436608603144,0.0
363,1436608603162,0.0
364,1436608603185,0.0
365,1436608603201,0.0
366,1436608603222,0.0
367,1436608603241,0.0
368,1436608603263,0.0
369,1436608603283,0.0
370,1436608603306,0.0
371,1436608603369,0.0
372,1436608603370,0.0
373,1436608603371,0.0
374,1436608603382,0.0
375,1436608603401,0.0
376,1436608603425,0.0
377,1436608603441,0.0
378,1436608603461,0.0
379,1436608603483,0.0
380,1436608603501,0.0
381,1436608603522,0.0
382,1436608603548,0.0
383,1436608603562,0.0
384,1436608603582,0.0
385,1436608603601,0.0
386,1436608603622,0.0
387,1436608603644,0.0
388,1436608603664,0.0
389,1436608603684,0.0
390,1436608603701,0.0
391,1436608603722,0.0
392,1436608603746,0.0
393,1436608603762,0.0
394,1436608603782,0.0
395,1436608603802,0.0
396,1436608603822,0.0
397,1436608603844,0.0
398,1436608603864,0.0
399,1436608603882,0.0
400,1436608603905,0.0
401,1436608603923,0.0
402,1436608603943,0.0
403,1436608603965,0.0
404,1436608603984,0.0
405,1436608604002,0.0
406,1436608604024,0.0
407,1436608604041,0.0
408,1436608604163,0.0
409,1436608604164,0.0
410,1436608604165,0.0
411,1436608604166,0.0
412,1436608604167,0.0
413,1436608604168,0.0
414,1436608604186,0.0
415,1436608604201,0.0
416,1436608604231,0.0
417,1436608604241,0.0
418,1436608604263,0.0
419,1436608604288,0.0
420,1436608604302,0.0
421,1436608604322,0.0
422,1436608604343,0.0
423,1436608604362,0.0
424,1436608604383,0.0
425,1436608604405,0.0
426,1436608604424,0.0
427,1436608604443,0.0
428,1436608604465,0.0
429,1436608604485,0.0
430,1436608604503,0.0
431,1436608604529,0.0
432,1436608604542,0.0
433,1436608604563,0.0
434,1436608604588,0.0
435,1436608604603,0.0
436,1436608604623,0.0
437,1436608604642,0.0
438,1436608604662,0.0
439,1436608604682,0.0
440,1436608604712,0.0
441,1436608604723,0.0
442,1436608604743,0.0
443,1436608604763,0.0
444,1436608604787,0.0
445,1436608604846,0.0
446,1436608604857,0.0
447,1436608604858,0.0
448,1436608604864,0.0
449,1436608604886,0.0
450,1436608604903,0.0
451,1436608604922,0.0
452,1436608604945,0.0
453,1436608604962,0.0
454,1436608604985,0.0
455,1436608605005,0.0
456,1436608605024,0.0
457,1436608605045,0.0
458,1436608605063,0.0
459,1436608605084,0.0
460,1436608605103,0.0
461,1436608605122,0.0
462,1436608605142,0.0
463,1436608605165,0.0
464,1436608605184,0.0
465,1436608605204,0.0
466,1436608605226,0.0
467,1436608605244,0.0
468,1436608605263,0.0
469,1436608605286,0.0
470,1436608605303,0.0
471,1436608605322,0.0
472,1436608605344,0.0
473,1436608605370,0.0
474,1436608605385,0.0
475,1436608605405,0.0
476,1436608605426,0.0
477,1436608605443,0.0
478,1436608605463,0.0
479,1436608605483,0.0
480,1436608605504,0.0
481,1436608605526,0.0
482,1436608605588,0.0
483,1436608605600,0.0
484,1436608605601,0.0
485,1436608605610,0.0
486,1436608605625,0.0
487,1436608605647,0.0
488,1436608605663,0.0
489,1436608605683,0.0
490,1436608605705,0.0
491,1436608605723,0.0
492,1436608605750,0.0
493,1436608605767,0.0
494,1436608605784,0.0
495,1436608605804,0.0
496,1436608605826,0.0
497,1436608605845,0.0
498,1436608605866,0.0
499,1436608605887,0.0
500,1436608605905,0.0
501,1436608605927,0.0
502,1436608605947,0.0
503,1436608605966,0.0
504,1436608605987,0.0
505,1436608606004,0.0
506,1436608606025,0.0
507,1436608606048,0.0
508,1436608606070,0.0
509,1436608606088,0.0
510,1436608606105,0.0
511,1436608606126,0.0
512,1436608606147,0.0
513,1436608606163,0.0
514,1436608606186,0.0
515,1436608606207,0.0
516,1436608606227,0.0
517,1436608606244,0.0
518,1436608606268,0.0
519,1436608606329,0.0
520,1436608606341,0.0
521,1436608606342,0.0
522,1436608606347,0.0
523,1436608606365,0.0
524,1436608606392,0.0
525,1436608606406,0.0
526,1436608606424,0.0
527,1436608606445,0.0
528,1436608606464,0.0
529,1436608606485,0.0
530,1436608606504,0.0
531,1436608606531,0.0
532,1436608606547,0.0
533,1436608606567,0.0
534,1436608606586,0.0
535,1436608606607,0.0
536,1436608606628,0.0
537,1436608606647,0.0
538,1436608606667,0.0
539,1436608606687,0.0
540,1436608606707,0.0
541,1436608606725,0.0
542,1436608606744,0.0
543,1436608606767,0.0
544,1436608606787,0.0
545,1436608606807,0.0
546,1436608606826,0.0
547,1436608606847,0.0
548,1436608606867,0.0
549,1436608606886,0.0
550,1436608606907,0.0
551,1436608606929,0.0
552,1436608606948,0.0
553,1436608606968,0.0
554,1436608606984,0.0
555,1436608607005,0.0
556,1436608607106,0.0
557,1436608607107,0.0
558,1436608607111,0.0
559,1436608607112,0.0
560,1436608607113,0.0
561,1436608607243,0.0
562,1436608607246,0.0
563,1436608607247,0.0
564,1436608607248,0.0
565,1436608607249,0.0
566,1436608607250,0.0
567,1436608607251,0.0
568,1436608607277,0.0
569,1436608607284,0.0
570,1436608607310,0.0
571,1436608607328,0.0
572,1436608607346,0.0
573,1436608607369,0.0
574,1436608607395,0.0
575,1436608607407,0.0
576,1436608607425,0.0
577,1436608607444,0.0
578,1436608607464,0.0
579,1436608607485,0.0
580,1436608607507,0.0
581,1436608607527,0.0
582,1436608607547,0.0
583,1436608607566,0.0
584,1436608607588,0.0
585,1436608607606,0.0
586,1436608607624,0.0
587,1436608607646,0.0
588,1436608607665,0.0
589,1436608607688,0.0
590,1436608607707,0.0
591,1436608607725,0.0
592,1436608607747,0.0
593,1436608607767,0.0
594,1436608607787,0.0
595,1436608607807,0.0
596,1436608607827,0.0
597,1436608607849,0.0
598,1436608607882,0.0
599,1436608607899,0.0
600,1436608607911,0.0
601,1436608607924,0.0
602,1436608607946,0.0
603,1436608607965,0.0
604,1436608607988,0.0
605,1436608608005,0.0
606,1436608608031,0.0
607,1436608608048,0.0
608,1436608608065,0.0
609,1436608608088,0.0
610,1436608608105,0.0
611,1436608608128,0.0
612,1436608608145,0.0
613,1436608608166,0.0
614,1436608608186,0.0
615,1436608608205,0.0
616,1436608608228,0.0
617,1436608608245,0.0
618,1436608608265,0.0
619,1436608608300,0.0
620,1436608608305,0.0
621,1436608608325,0.0
622,1436608608346,0.0
623,1436608608366,0.0
624,1436608608385,0.0
625,1436608608405,0.0
626,1436608608425,0.0
627,1436608608445,0.0
628,1436608608467,0.0
629,1436608608485,0.0
630,1436608608519,0.0
631,1436608608526,0.0
632,1436608608545,0.0
633,1436608608565,0.0
634,1436608608587,0.0
635,1436608608607,0.0
636,1436608608628,0.0
637,1436608608646,0.0
638,1436608608669,0.0
639,1436608608687,0.0
640,1436608608709,0.0
641,1436608608726,0.0
642,1436608608749,0.0
643,1436608608768,0.0
644,1436608608789,0.0
645,1436608608809,0.0
646,1436608608829,0.0
647,1436608608849,0.0
648,1436608608867,0.0
649,1436608608889,0.0
650,1436608608909,0.0
651,1436608608928,0.0
652,1436608608949,0.0
653,1436608608968,0.0
654,1436608608986,0.0
655,1436608609011,0.0
656,1436608609031,0.0
657,1436608609049,0.0
658,1436608609068,0.0
659,1436608609088,0.0
660,1436608609108,0.0
661,1436608609127,0.0
662,1436608609200,0.0
663,1436608609201,0.0
664,1436608609211,0.0
665,1436608609212,0.0
666,1436608609226,0.0
667,1436608609247,0.0
668,1436608609269,0.0
669,1436608609286,0.0
670,1436608609308,0.0
671,1436608609326,0.0
672,1436608609350,0.0
673,1436608609368,0.0
674,1436608609389,0.0
675,1436608609409,0.0
676,1436608609428,0.0
677,1436608609450,0.0
678,1436608609468,0.0
679,1436608609491,0.0
680,1436608609510,0.0
681,1436608609530,0.0
682,1436608609550,0.0
683,1436608609568,0.0
684,1436608609590,0.0
685,1436608609608,0.0
686,1436608609630,0.0
687,1436608609649,0.0
688,1436608609671,0.0
689,1436608609690,0.0
690,1436608609709,0.0
691,1436608609730,0.0
692,1436608609749,0.0
693,1436608609769,0.0
694,1436608609790,0.0
695,1436608609811,0.0
696,1436608609831,0.0
697,1436608609848,0.0
698,1436608609868,0.0
699,1436608609940,0.0
700,1436608609941,0.0
701,1436608609942,0.0
702,1436608609950,0.0
703,1436608609968,0.0
704,1436608609994,0.0
705,1436608610010,0.0
706,1436608610142,0.0
707,1436608610143,0.0
708,1436608610144,0.0
709,1436608610145,0.0
710,1436608610146,0.0
711,1436608610147,0.0
712,1436608610185,0.0
713,1436608610186,0.0
714,1436608610192,0.0
715,1436608610208,0.0
716,1436608610227,0.0
717,1436608610248,0.0
718,1436608610267,0.0
719,1436608610287,0.0
720,1436608610308,0.0
721,1436608610327,0.0
722,1436608610348,0.0
723,1436608610368,0.0
724,1436608610388,0.0
725,1436608610409,0.0
726,1436608610429,0.0
727,1436608610447,0.0
728,1436608610469,0.0
729,1436608610488,0.0
730,1436608610507,0.0
731,1436608610528,0.0
732,1436608610549,0.0
733,1436608610571,0.0
734,1436608610591,0.0
735,1436608610610,0.0
736,1436608610630,0.0
737,1436608610648,0.0
738,1436608610667,0.0
739,1436608610703,0.0
740,1436608610707,0.0
741,1436608610727,0.0
742,1436608610747,0.0
743,1436608610768,0.0
744,1436608610789,0.0
745,1436608610808,0.0
746,1436608610828,0.0
747,1436608610849,0.0
748,1436608610869,0.0
749,1436608610892,0.0
750,1436608610911,0.0
751,1436608610929,0.0
752,1436608610950,0.0
753,1436608610971,0.0
754,1436608610991,0.0
755,1436608611015,0.0
756,1436608611030,0.0
757,1436608611049,0.0
758,1436608611071,0.0
759,1436608611091,0.0
760,1436608611110,0.0
761,1436608611128,0.0
762,1436608611149,0.0
763,1436608611174,0.0
764,1436608611194,0.0
765,1436608611211,0.0
766,1436608611229,0.0
767,1436608611249,0.0
768,1436608611285,0.0
769,1436608611296,0.0
770,1436608611366,0.0
771,1436608611374,0.0
772,1436608611375,0.0
773,1436608611376,0.0
774,1436608611414,0.0
775,1436608611415,0.0
776,1436608611433,0.0
777,1436608611449,0.0
778,1436608611469,0.0
779,1436608611501,0.0
780,1436608611509,0.0
781,1436608611529,0.0
782,1436608611548,0.0
783,1436608611569,0.0
784,1436608611590,0.0
785,1436608611609,0.0
786,1436608611630,0.0
787,1436608611649,0.0
788,1436608611669,0.0
789,1436608611689,0.0
790,1436608611709,0.0
791,1436608611729,0.0
792,1436608611749,0.0
793,1436608611772,0.0
794,1436608611795,0.0
795,1436608611812,0.0
796,1436608611834,0.0
797,1436608611854,0.0
798,1436608611874,0.0
799,1436608611892,0.0
800,1436608611910,0.0
801,1436608611930,0.0
802,1436608611950,0.0
803,1436608611974,0.0
804,1436608611995,0.0
805,1436608612016,0.0
806,1436608612030,0.0
807,1436608612144,0.0
808,1436608612145,0.0
809,1436608612146,0.0
810,1436608612147,0.0
811,1436608612148,0.0
812,1436608612159,0.0
813,1436608612169,0.0
814,1436608612189,0.0
815,1436608612209,0.0
816,1436608612235,0.0
817,1436608612250,0.0
818,1436608612270,0.0
819,1436608612291,0.0
820,1436608612311,0.0
821,1436608612331,0.0
822,1436608612353,0.0
823,1436608612372,0.0
824,1436608612393,0.0
825,1436608612413,0.0
826,1436608612430,0.0
827,1436608612452,0.0
828,1436608612472,0.0
829,1436608612492,0.0
830,1436608612513,0.0
831,1436608612533,0.0
832,1436608612551,0.0
833,1436608612571,0.0
834,1436608612591,0.0
835,1436608612612,0.0
836,1436608612631,0.0
837,1436608612654,0.0
838,1436608612670,0.0
839,1436608612694,0.0
840,1436608612713,0.0
841,1436608612731,0.0
842,1436608612751,0.0
843,1436608612770,0.0
844,1436608612791,0.0
845,1436608612812,0.0
846,1436608612880,0.0
847,1436608612881,0.0
848,1436608612882,0.0
849,1436608612890,0.0
850,1436608612910,0.0
851,1436608612931,0.0
852,1436608612950,0.0
853,1436608612973,0.0
854,1436608612994,0.0
855,1436608613015,0.0
856,1436608613032,0.0
857,1436608613055,0.0
858,1436608613078,0.0
859,1436608613093,0.0
860,1436608613111,0.0
861,1436608613131,0.0
862,1436608613150,0.0
863,1436608613170,0.0
864,1436608613191,0.0
865,1436608613210,0.0
866,1436608613265,0.0
867,1436608613266,0.0
868,1436608613270,0.0
869,1436608613290,0.0
870,1436608613310,0.0
871,1436608613332,0.0
872,1436608613353,0.0
873,1436608613372,0.0
874,1436608613391,0.0
875,1436608613412,0.0
876,1436608613437,0.0
877,1436608613469,0.0
878,1436608613472,0.0
879,1436608613490,0.0
880,1436608613510,0.0
881,1436608613531,0.0
882,1436608613551,0.0
883,1436608613571,0.0
884,1436608613605,0.0
885,1436608613615,0.0
886,1436608613631,0.0
887,1436608613651,0.0
888,1436608613672,0.0
889,1436608613691,0.0
890,1436608613711,0.0
891,1436608613731,0.0
892,1436608613752,0.0
893,1436608613771,0.0
894,1436608613792,0.0
895,1436608613813,0.0
896,1436608613832,0.0
897,1436608613852,0.0
898,1436608613874,0.0
899,1436608613894,0.0
900,1436608613912,0.0
901,1436608613934,0.0
902,1436608613952,0.0
903,1436608613972,0.0
904,1436608613994,0.0
905,1436608614011,0.0
906,1436608614032,0.0
907,1436608614053,0.0
908,1436608614072,0.0
909,1436608614094,0.0
910,1436608614111,0.0
911,1436608614132,0.0
912,1436608614153,0.0
