id,attr_time,attr_light
1,1436608595903,0.0
2,1436608595924,0.0
3,1436608595945,0.0
4,1436608595963,0.0
5,1436608595985,0.0
6,1436608596004,0.0
7,1436608596032,0.0
8,1436608596045,0.0
9,1436608596063,0.0
10,1436608596082,0.0
11,1436608596101,0.0
12,1436608596126,0.0
13,1436608596147,0.0
14,1436608596163,0.0
15,1436608596185,0.0
16,1436608596202,0.0
17,1436608596221,0.0
18,1436608596241,0.0
19,1436608596264,0.0
20,1436608596289,0.0
21,1436608596350,0.0
22,1436608596351,0.0
23,1436608596352,0.0
24,1436608596372,0.0
25,1436608596381,0.0
26,1436608596402,0.0
27,1436608596423,0.0
28,1436608596441,0.0
29,1436608596462,0.0
30,1436608596494,0.0
31,1436608596501,0.0
32,1436608596521,0.0
33,1436608596541,0.0
34,1436608596562,0.0
35,1436608596583,0.0
36,1436608596604,0.0
37,1436608596626,0.0
38,1436608596644,0.0
39,1436608596665,0.0
40,1436608596686,0.0
41,1436608596704,0.0
42,1436608596725,0.0
43,1436608596745,0.0
44,1436608596762,0.0
45,1436608596786,0.0
46,1436608596804,0.0
47,1436608596825,0.0
48,1436608596843,0.0
49,1436608596866,0.0
50,1436608596886,0.0
51,1436608596904,0.0
52,1436608596925,0.0
53,1436608596946,0.0
54,1436608596965,0.0
55,1436608596986,0.0
56,1436608597092,0.0
57,1436608597106,0.0
58,1436608597107,0.0
59,1436608597108,0.0
60,1436608597109,0.0
61,1436608597110,0.0
62,1436608597124,0.0
63,1436608597144,0.0
64,1436608597195,0.0
65,1436608597196,0.0
66,1436608597203,0.0
67,1436608597222,0.0
68,1436608597243,0.0
69,1436608597263,0.0
70,1436608597293,0.0
71,1436608597306,0.0
72,1436608597326,0.0
73,1436608597346,0.0
74,1436608597365,0.0
75,1436608597386,0.0
76,1436608597406,0.0
77,1436608597425,0.0
78,1436608597445,0.0
79,1436608597468,0.0
80,1436608597483,0.0
81,1436608597506,0.0
82,1436608597527,0.0
83,1436608597546,0.0
84,1436608597566,0.0
85,1436608597587,0.0
86,1436608597605,0.0
87,1436608597623,0.0
88,1436608597646,0.0
89,1436608597666,0.0
90,1436608597688,0.0
91,1436608597713,0.0
92,1436608597723,0.0
93,1436608597744,0.0
94,1436608597768,0.0
95,1436608597790,0.0
96,1436608597805,0.0
97,1436608597823,0.0
98,1436608597847,0.0
99,1436608597866,0.0
100,1436608597886,0.0
101,1436608597905,0.0
102,1436608597923,0.0
103,1436608597946,0.0
104,1436608597964,0.0
105,1436608597984,0.0
106,1436608598091,0.0
107,1436608598092,0.0
108,1436608598093,0.0
109,1436608598094,0.0
110,1436608598095,0.0
111,1436608598106,0.0
112,1436608598126,0.0
113,1436608598147,0.0
114,1436608598166,0.0
115,1436608598188,0.0
116,1436608598203,0.0
117,1436608598226,0.0
118,1436608598247,0.0
119,1436608598267,0.0
120,1436608598287,0.0
121,1436608598304,0.0
122,1436608598327,0.0
123,1436608598347,0.0
124,1436608598367,0.0
125,1436608598387,0.0
126,1436608598407,0.0
127,1436608598427,0.0
128,1436608598444,0.0
129,1436608598467,0.0
130,1436608598530,0.0
131,1436608598531,0.0
132,1436608598532,0.0
133,1436608598544,0.0
134,1436608598565,0.0
135,1436608598587,0.0
136,1436608598603,0.0
137,1436608598627,0.0
138,1436608598644,0.0
139,1436608598667,0.0
140,1436608598688,0.0
141,1436608598704,0.0
142,1436608598724,0.0
143,1436608598747,0.0
144,1436608598767,0.0
145,1436608598787,0.0
146,1436608598807,0.0
147,1436608598827,0.0
148,1436608598847,0.0
149,1436608598867,0.0
150,1436608598887,0.0
151,1436608598909,0.0
152,1436608598924,0.0
153,1436608598947,0.0
154,1436608598967,0.0
155,1436608598989,0.0
156,1436608599009,0.0
157,1436608599035,0.0
158,1436608599045,0.0
159,1436608599067,0.0
160,1436608599087,0.0
161,1436608599107,0.0
162,1436608599128,0.0
163,1436608599148,0.0
164,1436608599167,0.0
165,1436608599188,0.0
166,1436608599249,0.0
167,1436608599250,0.0
168,1436608599251,0.0
169,1436608599267,0.0
170,1436608599286,0.0
171,1436608599309,0.0
172,1436608599327,0.0
173,1436608599346,0.0
174,1436608599367,0.0
175,1436608599385,0.0
176,1436608599406,0.0
177,1436608599425,0.0
178,1436608599446,0.0
179,1436608599465,0.0
180,1436608599488,0.0
181,1436608599507,0.0
182,1436608599528,0.0
183,1436608599548,0.0
184,1436608599568,0.0
185,1436608599588,0.0
186,1436608599607,0.0
187,1436608599628,0.0
188,1436608599649,0.0
189,1436608599665,0.0
190,1436608599688,0.0
191,1436608599708,0.0
192,1436608599728,0.0
193,1436608599748,0.0
194,1436608599768,0.0
195,1436608599787,0.0
196,1436608599808,0.0
197,1436608599828,0.0
198,1436608599849,0.0
199,1436608599868,0.0
200,1436608599889,0.0
201,1436608599908,0.0
202,1436608599926,0.0
203,1436608600067,0.0
204,1436608600068,0.0
205,1436608600069,0.0
206,1436608600070,0.0
207,1436608600071,0.0
208,1436608600072,0.0
209,1436608600073,0.0
210,1436608600092,0.0
211,1436608600107,0.0
212,1436608600136,0.0
213,1436608600145,0.0
214,1436608600165,0.0
215,1436608600195,0.0
216,1436608600206,0.0
217,1436608600228,0.0
218,1436608600248,0.0
219,1436608600268,0.0
220,1436608600289,0.0
221,1436608600311,0.0
222,1436608600329,0.0
223,1436608600349,0.0
224,1436608600368,0.0
225,1436608600389,0.0
226,1436608600410,0.0
227,1436608600426,0.0
228,1436608600450,0.0
229,1436608600467,0.0
230,1436608600487,0.0
231,1436608600508,0.0
232,1436608600528,0.0
233,1436608600548,0.0
234,1436608600569,0.0
235,1436608600588,0.0
236,1436608600607,0.0
237,1436608600628,0.0
238,1436608600648,0.0
239,1436608600669,0.0
240,1436608600694,0.0
241,1436608600752,0.0
242,1436608600753,0.0
243,1436608600754,0.0
244,1436608600771,0.0
245,1436608600788,0.0
246,1436608600807,0.0
247,1436608600826,0.0
248,1436608600850,0.0
249,1436608600866,0.0
250,1436608600887,0.0
251,1436608600908,0.0
252,1436608600927,0.0
253,1436608600949,0.0
254,1436608600966,0.0
255,1436608600988,0.0
256,1436608601009,0.0
257,1436608601028,0.0
258,1436608601047,0.0
259,1436608601068,0.0
260,1436608601090,0.0
261,1436608601109,0.0
262,1436608601129,0.0
263,1436608601147,0.0
264,1436608601168,0.0
265,1436608601187,0.0
266,1436608601206,0.0
267,1436608601226,0.0
268,1436608601247,0.0
269,1436608601272,0.0
270,1436608601292,0.0
271,1436608601315,0.0
272,1436608601330,0.0
273,1436608601346,0.0
274,1436608601367,0.0
275,1436608601387,0.0
276,1436608601408,0.0
277,1436608601429,0.0
278,1436608601497,0.0
279,1436608601498,0.0
280,1436608601499,0.0
281,1436608601506,0.0
282,1436608601532,0.0
283,1436608601547,0.0
284,1436608601567,0.0
285,1436608601589,0.0
286,1436608601608,0.0
287,1436608601630,0.0
288,1436608601647,0.0
289,1436608601669,0.0
290,1436608601687,0.0
291,1436608601710,0.0
292,1436608601730,0.0
293,1436608601750,0.0
294,1436608601770,0.0
295,1436608601790,0.0
296,1436608601811,0.0
297,1436608601830,0.0
298,1436608601850,0.0
299,1436608601872,0.0
300,1436608601887,0.0
301,1436608601910,0.0
302,1436608601930,0.0
303,1436608601951,0.0
304,1436608601972,0.0
305,1436608601988,0.0
306,1436608602010,0.0
307,1436608602028,0.0
308,1436608602048,0.0
309,1436608602072,0.0
310,1436608602089,0.0
311,1436608602109,0.0
312,1436608602128,0.0
313,1436608602147,0.0
314,1436608602175,0.0
315,1436608602201,0.0
316,1436608602207,0.0
317,1436608602227,0.0
318,1436608602247,0.0
319,1436608602267,0.0
320,1436608602287,0.0
321,1436608602307,0.0
322,1436608602329,0.0
323,1436608602348,0.0
324,1436608602369,0.0
325,1436608602388,0.0
326,1436608602410,0.0
327,1436608602430,0.0
328,1436608602450,0.0
329,1436608602469,0.0
330,1436608602491,0.0
331,1436608602511,0.0
332,1436608602530,0.0
333,1436608602551,0.0
334,1436608602571,0.0
335,1436608602591,0.0
336,1436608602612,0.0
337,1436608602627,0.0
338,1436608602651,0.0
339,1436608602670,0.0
340,1436608602692,0.0
341,1436608602710,0.0
342,1436608602731,0.0
343,1436608602751,0.0
344,1436608602771,0.0
345,1436608602789,0.0
346,1436608602811,0.0
347,1436608602831,0.0
348,1436608602851,0.0
349,1436608602871,0.0
350,1436608602894,0.0
351,1436608602960,0.0
352,1436608602961,0.0
353,1436608602962,0.0
354,1436608602970,0.0
355,1436608602991,0.0
356,1436608603029,0.0
357,1436608603032,0.0
358,1436608603048,0.0
359,1436608603174,0.0
360,1436608603175,0.0
361,1436608603176,0.0
362,1436608603177,0.0
363,1436608603178,0.0
364,1436608603179,0.0
365,1436608603193,0.0
366,1436608603209,0.0
367,1436608603230,0.0
368,1436608603251,0.0
369,1436608603271,0.0
370,1436608603290,0.0
371,1436608603311,0.0
372,1436608603329,0.0
373,1436608603351,0.0
374,1436608603371,0.0
375,1436608603390,0.0
376,1436608603411,0.0
377,1436608603432,0.0
378,1436608603449,0.0
379,1436608603468,0.0
380,1436608603491,0.0
381,1436608603511,0.0
382,1436608603531,0.0
383,1436608603551,0.0
384,1436608603572,0.0
385,1436608603590,0.0
386,1436608603611,0.0
387,1436608603633,0.0
388,1436608603651,0.0
389,1436608603671,0.0
390,1436608603689,0.0
391,1436608603715,0.0
392,1436608603791,0.0
393,1436608603792,0.0
394,1436608603793,0.0
395,1436608603794,0.0
396,1436608603809,0.0
397,1436608603830,0.0
398,1436608603849,0.0
399,1436608603872,0.0
400,1436608603889,0.0
401,1436608603909,0.0
402,1436608603931,0.0
403,1436608603950,0.0
404,1436608603971,0.0
405,1436608603991,0.0
406,1436608604010,0.0
407,1436608604031,0.0
408,1436608604050,0.0
409,1436608604069,0.0
410,1436608604091,0.0
411,1436608604111,0.0
412,1436608604132,0.0
413,1436608604152,0.0
414,1436608604172,0.0
415,1436608604191,0.0
416,1436608604215,0.0
417,1436608604230,0.0
418,1436608604249,0.0
419,1436608604269,0.0
420,1436608604292,0.0
421,1436608604313,0.0
422,1436608604335,0.0
423,1436608604351,0.0
424,1436608604371,0.0
425,1436608604389,0.0
426,1436608604411,0.0
427,1436608604431,0.0
428,1436608604502,0.0
429,1436608604503,0.0
430,1436608604504,0.0
431,1436608604511,0.0
432,1436608604530,0.0
433,1436608604549,0.0
434,1436608604570,0.0
435,1436608604589,0.0
436,1436608604611,0.0
437,1436608604630,0.0
438,1436608604652,0.0
439,1436608604673,0.0
440,1436608604689,0.0
441,1436608604711,0.0
442,1436608604733,0.0
443,1436608604753,0.0
444,1436608604773,0.0
445,1436608604791,0.0
446,1436608604811,0.0
447,1436608604831,0.0
448,1436608604853,0.0
449,1436608604873,0.0
450,1436608604891,0.0
451,1436608604911,0.0
452,1436608604933,0.0
453,1436608604953,0.0
454,1436608604973,0.0
455,1436608604993,0.0
456,1436608605012,0.0
457,1436608605034,0.0
458,1436608605053,0.0
459,1436608605074,0.0
460,1436608605090,0.0
461,1436608605113,0.0
462,1436608605130,0.0
463,1436608605150,0.0
464,1436608605170,0.0
465,1436608605241,0.0
466,1436608605242,0.0
467,1436608605253,0.0
468,1436608605254,0.0
469,1436608605284,0.0
470,1436608605291,0.0
471,1436608605310,0.0
472,1436608605330,0.0
473,1436608605358,0.0
474,1436608605370,0.0
475,1436608605391,0.0
476,1436608605413,0.0
477,1436608605430,0.0
478,1436608605450,0.0
479,1436608605470,0.0
480,1436608605491,0.0
481,1436608605509,0.0
482,1436608605530,0.0
483,1436608605551,0.0
484,1436608605571,0.0
485,1436608605591,0.0
486,1436608605610,0.0
487,1436608605630,0.0
488,1436608605652,0.0
489,1436608605673,0.0
490,1436608605693,0.0
491,1436608605711,0.0
492,1436608605732,0.0
493,1436608605751,0.0
494,1436608605772,0.0
495,1436608605793,0.0
496,1436608605811,0.0
497,1436608605831,0.0
498,1436608605852,0.0
499,1436608605872,0.0
500,1436608605892,0.0
501,1436608605911,0.0
502,1436608605962,0.0
503,1436608605963,0.0
504,1436608605996,0.0
505,1436608605997,0.0
506,1436608606011,0.0
507,1436608606032,0.0
508,1436608606051,0.0
509,1436608606076,0.0
510,1436608606091,0.0
511,1436608606111,0.0
512,1436608606136,0.0
513,1436608606151,0.0
514,1436608606171,0.0
515,1436608606192,0.0
516,1436608606211,0.0
517,1436608606231,0.0
518,1436608606251,0.0
519,1436608606271,0.0
520,1436608606291,0.0
521,1436608606333,0.0
522,1436608606334,0.0
523,1436608606351,0.0
524,1436608606371,0.0
525,1436608606394,0.0
526,1436608606412,0.0
527,1436608606431,0.0
528,1436608606451,0.0
529,1436608606471,0.0
530,1436608606490,0.0
531,1436608606510,0.0
532,1436608606530,0.0
533,1436608606550,0.0
534,1436608606570,0.0
535,1436608606590,0.0
536,1436608606610,0.0
537,1436608606630,0.0
538,1436608606650,0.0
539,1436608606670,0.0
540,1436608606690,0.0
541,1436608606710,0.0
542,1436608606730,0.0
543,1436608606750,0.0
544,1436608606770,0.0
545,1436608606790,0.0
546,1436608606810,0.0
547,1436608606830,0.0
548,1436608606850,0.0
549,1436608606873,0.0
550,1436608606894,0.0
551,1436608606913,0.0
552,1436608606931,0.0
553,1436608606953,0.0
554,1436608606978,0.0
555,1436608606994,0.0
556,1436608607016,0.0
557,1436608607032,0.0
558,1436608607051,0.0
559,1436608607073,0.0
560,1436608607095,0.0
561,1436608607116,0.0
562,1436608607135,0.0
563,1436608607155,0.0
564,1436608607171,0.0
565,1436608607205,0.0
566,1436608607219,0.0
567,1436608607233,0.0
568,1436608607253,0.0
569,1436608607271,0.0
570,1436608607291,0.0
571,1436608607311,0.0
572,1436608607331,0.0
573,1436608607351,0.0
574,1436608607373,0.0
575,1436608607395,0.0
576,1436608607411,0.0
577,1436608607435,0.0
578,1436608607456,0.0
579,1436608607475,0.0
580,1436608607495,0.0
581,1436608607516,0.0
582,1436608607535,0.0
583,1436608607554,0.0
584,1436608607573,0.0
585,1436608607596,0.0
586,1436608607612,0.0
587,1436608607632,0.0
588,1436608607653,0.0
589,1436608607677,0.0
590,1436608607699,0.0
591,1436608607718,0.0
592,1436608607735,0.0
593,1436608607752,0.0
594,1436608607773,0.0
595,1436608607793,0.0
596,1436608607815,0.0
597,1436608607836,0.0
598,1436608607899,0.0
599,1436608607900,0.0
600,1436608607901,0.0
601,1436608607912,0.0
602,1436608607935,0.0
603,1436608607954,0.0
604,1436608607973,0.0
605,1436608608000,0.0
606,1436608608019,0.0
607,1436608608042,0.0
608,1436608608056,0.0
609,1436608608077,0.0
610,1436608608093,0.0
611,1436608608113,0.0
612,1436608608136,0.0
613,1436608608156,0.0
614,1436608608176,0.0
615,1436608608194,0.0
616,1436608608213,0.0
617,1436608608233,0.0
618,1436608608253,0.0
619,1436608608273,0.0
620,1436608608297,0.0
621,1436608608314,0.0
622,1436608608336,0.0
623,1436608608355,0.0
624,1436608608375,0.0
625,1436608608395,0.0
626,1436608608416,0.0
627,1436608608436,0.0
628,1436608608455,0.0
629,1436608608476,0.0
630,1436608608495,0.0
631,1436608608515,0.0
632,1436608608535,0.0
633,1436608608556,0.0
634,1436608608574,0.0
635,1436608608647,0.0
636,1436608608648,0.0
637,1436608608649,0.0
638,1436608608657,0.0
639,1436608608676,0.0
640,1436608608697,0.0
641,1436608608713,0.0
642,1436608608740,0.0
643,1436608608755,0.0
644,1436608608776,0.0
645,1436608608800,0.0
646,1436608608814,0.0
647,1436608608837,0.0
648,1436608608856,0.0
649,1436608608876,0.0
650,1436608608896,0.0
651,1436608608916,0.0
652,1436608608936,0.0
653,1436608608956,0.0
654,1436608608981,0.0
655,1436608608996,0.0
656,1436608609039,0.0
657,1436608609040,0.0
658,1436608609058,0.0
659,1436608609078,0.0
660,1436608609096,0.0
661,1436608609116,0.0
662,1436608609136,0.0
663,1436608609156,0.0
664,1436608609176,0.0
665,1436608609196,0.0
666,1436608609217,0.0
667,1436608609238,0.0
668,1436608609256,0.0
669,1436608609277,0.0
670,1436608609296,0.0
671,1436608609398,0.0
672,1436608609399,0.0
673,1436608609400,0.0
674,1436608609401,0.0
675,1436608609402,0.0
676,1436608609448,0.0
677,1436608609449,0.0
678,1436608609469,0.0
679,1436608609477,0.0
680,1436608609522,0.0
681,1436608609523,0.0
682,1436608609541,0.0
683,1436608609554,0.0
684,1436608609576,0.0
685,1436608609594,0.0
686,1436608609614,0.0
687,1436608609635,0.0
688,1436608609654,0.0
689,1436608609675,0.0
690,1436608609694,0.0
691,1436608609714,0.0
692,1436608609734,0.0
693,1436608609754,0.0
694,1436608609777,0.0
695,1436608609796,0.0
696,1436608609815,0.0
697,1436608609838,0.0
698,1436608609857,0.0
699,1436608609876,0.0
700,1436608609896,0.0
701,1436608609918,0.0
702,1436608609938,0.0
703,1436608609958,0.0
704,1436608609981,0.0
705,1436608610001,0.0
706,1436608610019,0.0
707,1436608610042,0.0
708,1436608610058,0.0
709,1436608610158,0.0
710,1436608610159,0.0
711,1436608610160,0.0
712,1436608610161,0.0
713,1436608610162,0.0
714,1436608610175,0.0
715,1436608610204,0.0
716,1436608610216,0.0
717,1436608610237,0.0
718,1436608610257,0.0
719,1436608610276,0.0
720,1436608610297,0.0
721,1436608610315,0.0
722,1436608610338,0.0
723,1436608610358,0.0
724,1436608610378,0.0
725,1436608610398,0.0
726,1436608610418,0.0
727,1436608610438,0.0
728,1436608610458,0.0
729,1436608610478,0.0
730,1436608610498,0.0
731,1436608610518,0.0
732,1436608610536,0.0
733,1436608610556,0.0
734,1436608610578,0.0
735,1436608610596,0.0
736,1436608610616,0.0
737,1436608610635,0.0
738,1436608610661,0.0
739,1436608610681,0.0
740,1436608610702,0.0
741,1436608610718,0.0
742,1436608610735,0.0
743,1436608610756,0.0
744,1436608610776,0.0
745,1436608610797,0.0
746,1436608610816,0.0
747,1436608610887,0.0
748,1436608610888,0.0
749,1436608610889,0.0
750,1436608610896,0.0
751,1436608610922,0.0
752,1436608610937,0.0
753,1436608610957,0.0
754,1436608610978,0.0
755,1436608610996,0.0
756,1436608611023,0.0
757,1436608611044,0.0
758,1436608611059,0.0
759,1436608611077,0.0
760,1436608611099,0.0
761,1436608611119,0.0
762,1436608611139,0.0
763,1436608611159,0.0
764,1436608611179,0.0
765,1436608611200,0.0
766,1436608611219,0.0
767,1436608611237,0.0
768,1436608611259,0.0
769,1436608611276,0.0
770,1436608611299,0.0
771,1436608611319,0.0
772,1436608611339,0.0
773,1436608611359,0.0
774,1436608611378,0.0
775,1436608611399,0.0
776,1436608611419,0.0
777,1436608611440,0.0
778,1436608611460,0.0
779,1436608611479,0.0
780,1436608611498,0.0
781,1436608611517,0.0
782,1436608611548,0.0
783,1436608611598,0.0
784,1436608611601,0.0
785,1436608611602,0.0
786,1436608611620,0.0
787,1436608611641,0.0
788,1436608611661,0.0
789,1436608611677,0.0
790,1436608611697,0.0
791,1436608611718,0.0
792,1436608611737,0.0
793,1436608611758,0.0
794,1436608611779,0.0
795,1436608611797,0.0
796,1436608611817,0.0
797,1436608611840,0.0
798,1436608611860,0.0
799,1436608611879,0.0
800,1436608611900,0.0
801,1436608611920,0.0
802,1436608611940,0.0
803,1436608611960,0.0
804,1436608611981,0.0
805,1436608612001,0.0
806,1436608612019,0.0
807,1436608612039,0.0
808,1436608612059,0.0
809,1436608612079,0.0
810,1436608612099,0.0
811,1436608612120,0.0
812,1436608612140,0.0
813,1436608612160,0.0
814,1436608612180,0.0
815,1436608612201,0.0
816,1436608612220,0.0
817,1436608612241,0.0
818,1436608612260,0.0
819,1436608612286,0.0
820,1436608612350,0.0
821,1436608612351,0.0
822,1436608612352,0.0
823,1436608612358,0.0
824,1436608612378,0.0
825,1436608612400,0.0
826,1436608612417,0.0
827,1436608612438,0.0
828,1436608612457,0.0
829,1436608612483,0.0
830,1436608612502,0.0
831,1436608612518,0.0
832,1436608612540,0.0
833,1436608612561,0.0
834,1436608612580,0.0
835,1436608612600,0.0
836,1436608612621,0.0
837,1436608612640,0.0
838,1436608612660,0.0
839,1436608612680,0.0
840,1436608612700,0.0
841,1436608612721,0.0
842,1436608612739,0.0
843,1436608612761,0.0
844,1436608612780,0.0
845,1436608612800,0.0
846,1436608612819,0.0
847,1436608612841,0.0
848,1436608612878,0.0
849,1436608612879,0.0
850,1436608612897,0.0
851,1436608612917,0.0
852,1436608612937,0.0
853,1436608612957,0.0
854,1436608612979,0.0
855,1436608613068,0.0
856,1436608613069,0.0
857,1436608613070,0.0
858,1436608613081,0.0
859,1436608613083,0.0
860,1436608613108,0.0
861,1436608613118,0.0
862,1436608613138,0.0
863,1436608613158,0.0
864,1436608613178,0.0
865,1436608613198,0.0
866,1436608613238,0.0
867,1436608613239,0.0
868,1436608613272,0.0
869,1436608613286,0.0
870,1436608613304,0.0
871,1436608613318,0.0
872,1436608613341,0.0
873,1436608613361,0.0
874,1436608613383,0.0
875,1436608613401,0.0
876,1436608613421,0.0
877,1436608613441,0.0
878,1436608613461,0.0
879,1436608613481,0.0
880,1436608613501,0.0
881,1436608613523,0.0
882,1436608613538,0.0
883,1436608613560,0.0
884,1436608613581,0.0
885,1436608613600,0.0
886,1436608613621,0.0
887,1436608613643,0.0
888,1436608613660,0.0
889,1436608613681,0.0
890,1436608613701,0.0
891,1436608613721,0.0
892,1436608613740,0.0
893,1436608613760,0.0
894,1436608613780,0.0
895,1436608613808,0.0
896,1436608613863,0.0
897,1436608613864,0.0
898,1436608613865,0.0
899,1436608613887,0.0
900,1436608613898,0.0
901,1436608613919,0.0
902,1436608613938,0.0
903,1436608613958,0.0
904,1436608613979,0.0
905,1436608614003,0.0
906,1436608614020,0.0
907,1436608614044,0.0
908,1436608614059,0.0
909,1436608614080,0.0
910,1436608614101,0.0
911,1436608614121,0.0
912,1436608614142,0.0
