id,attr_time,attr_db
1,1436800487181,34.1193334765236
2,1436800487882,30.3350696510273
3,1436800488452,27.0542204399581
4,1436800489110,27.892583282462
5,1436800489848,24.9150827319756
6,1436800490588,27.6833280229558
7,1436800491307,24.8286151716935
8,1436800492060,25.568410142936
9,1436800492829,24.3683024885555
10,1436800493564,20.6811170748292
11,1436800494278,20.7258709296796
12,1436800494945,22.1926584667722
13,1436800496443,60.6371917863556
14,1436800497110,55.7616149878395
15,1436800497855,64.3595199573551
16,1436800498581,51.0939389430634
17,1436800499362,46.2627134546384
18,1436800500083,44.6875830082274
19,1436800500817,27.6939326948433
20,1436800501556,30.6259353589764
21,1436800502346,33.8461708209272
22,1436800503038,24.8671754597185
23,1436800503673,50.28376372301
24,1436800504929,57.8556206314737
25,1436800505592,29.8237272551093
26,1436800506339,26.971017939607
27,1436800507037,45.336760167712
28,1436800507746,49.4306822858594
29,1436800508397,22.5760939883363
30,1436800509105,24.161569313515
31,1436800509748,49.7217762039971
32,1436800510429,51.1660357817074
33,1436800511154,42.8472221218524
34,1436800511887,44.1218071316979
35,1436800512609,23.6536467608024
36,1436800513347,68.8190815298926
37,1436800514063,40.7680535962683
38,1436800514738,32.4299337147873
39,1436800515463,45.2426674805062
40,1436800516198,41.3981937283508
41,1436800516918,49.852729194919
42,1436800517649,45.2136497417639
43,1436800518377,38.5578597837132
44,1436800519141,36.6665675447707
45,1436800519850,47.8016394858046
46,1436800520559,38.3795426568027
47,1436800521293,54.3614309356597
48,1436800522035,47.5865769228166
49,1436800522797,63.6470102408008
50,1436800523536,58.4521543072176
51,1436800524234,58.3818205643091
52,1436800524960,43.5228821347107
53,1436800525697,42.7228741524883
54,1436800526436,57.0403844343374
55,1436800527161,40.9733326905012
56,1436800527893,25.9881658782276
57,1436800528589,43.6377971725448
58,1436800529242,41.7534556578615
59,1436800529937,54.1286614237109
60,1436800530688,36.8200326481941
61,1436800531406,57.3620891810477
62,1436800532119,49.0808243017513
63,1436800532755,47.5943150065636
64,1436800533459,49.3496551776135
65,1436800534193,42.8579198258173
66,1436800534929,50.4071511700838
67,1436800535678,25.4170372268543
68,1436800536395,41.4033415497164
69,1436800537123,23.8070512850473
70,1436800537850,19.7257595517976
71,1436800538563,31.6527714348453
72,1436800539295,26.3615174492157
73,1436800539977,19.9781840555697
74,1436800540732,47.1195783864806
75,1436800541466,46.7921189635654
76,1436800542183,21.6653586631225
77,1436800542898,41.1203728427
78,1436800543600,57.0987721428236
79,1436800544365,52.2698472168451
80,1436800545040,56.409442028354
81,1436800545799,16.7199235357435
82,1436800546528,14.6889141401264
83,1436800547255,63.1096227841355
84,1436800547993,55.5829366946462
85,1436800548756,49.9074830284502
86,1436800549506,44.1427927587379
87,1436800550224,56.2462958718047
88,1436800550929,55.679325736709
89,1436800551614,46.2787817564917
90,1436800552206,43.1143062033405
91,1436800552899,20.7625408322159
92,1436800553630,49.1731938637369
93,1436800554345,31.3305878326721
94,1436800555073,31.9319702535529
95,1436800555809,26.9831739174417
96,1436800556523,52.0920057797146
97,1436800557271,52.652129078159
98,1436800557978,43.8007919489788
99,1436800558721,55.3450705322783
100,1436800559460,46.4025491101185
101,1436800560196,20.4690470915087
102,1436800560924,21.8106750489865
103,1436800561665,18.3933358829421
104,1436800562417,20.9929918549883
105,1436800563079,43.9468616736948
106,1436800563843,34.8020174062669
107,1436800564616,29.1727671104383
108,1436800565326,28.7767129160605
109,1436800566089,21.3958199043715
110,1436800566846,52.754468413765
111,1436800567559,28.414812887909
112,1436800568290,25.0910263135523
113,1436800569044,56.4483197327603
114,1436800569980,28.9100633397536
115,1436800570608,20.5491863722315
116,1436800571293,23.6249454197248
117,1436800571959,40.7684978759064
118,1436800572698,55.6887966946196
119,1436800573424,24.6944951120489
120,1436800574142,41.8732649277835
121,1436800574853,49.3422993297343
122,1436800575568,17.4277644053012
123,1436800576281,18.3352311809688
124,1436800577017,44.6890355482634
125,1436800577793,54.2591757939192
126,1436800578520,48.1220694875152
127,1436800579256,17.9096706213177
128,1436800579966,17.4274327969042
129,1436800580683,16.0365945064247
130,1436800581354,24.2088869264206
131,1436800581996,13.362365621197
132,1436800582676,14.629557263232
133,1436800583396,18.420159355629
134,1436800584126,34.3010709243819
135,1436800584857,32.5309437165964
136,1436800585607,16.0647670793526
137,1436800586354,38.1794973159346
138,1436800587053,52.7084884181207
139,1436800587770,49.6662485472397
140,1436800588492,49.1509033527274
141,1436800589243,17.5530096362102
142,1436800589986,22.8215162047362
143,1436800590724,29.3036996123187
144,1436800591463,54.0326260186594
145,1436800592151,62.4915854132224
146,1436800592829,18.1424822906101
147,1436800593548,61.0087082876961
148,1436800594338,56.6489933089671
149,1436800595076,50.1012824416011
150,1436800595828,21.3968850695746
151,1436800596536,41.8112238355848
152,1436800597272,53.9633754857565
153,1436800598002,25.3724607916878
154,1436800598765,50.0608151036313
155,1436800599511,47.4678613388344
156,1436800600316,26.0877834451124
157,1436800601077,28.0675434647619
158,1436800601818,29.8031243048405
159,1436800602464,35.4607468000636
160,1436800603175,32.055359430312
161,1436800603907,33.6624019184297
162,1436800604637,25.7007136723078
163,1436800605360,25.2108417440663
164,1436800606102,24.0423323369619
165,1436800606843,55.6845630396462
166,1436800607521,45.2981429143272
167,1436800608253,55.8088592405549
168,1436800609039,40.1912292027757
169,1436800609763,44.3418487258296
170,1436800610493,22.1683107081556
171,1436800611243,62.6817518137344
172,1436800611944,53.6694128519402
173,1436800612566,37.8328415922949
174,1436800613234,63.8262471678548
175,1436800613959,58.7335813930865
176,1436800614705,28.794658345368
177,1436800615413,49.1099880613191
178,1436800616149,37.1044329909365
179,1436800616867,19.5195493458086
180,1436800617588,21.0705326749421
181,1436800618296,20.8974652111374
182,1436800619012,20.4986484967247
183,1436800619790,20.8921291597261
184,1436800620499,21.7656081789205
185,1436800621245,21.335661649392
186,1436800621979,21.9037891857743
187,1436800622798,43.4484961659213
188,1436800623505,39.0968633865338
189,1436800624206,51.8580469396494
190,1436800624934,27.6977872591413
191,1436800625691,63.9010065638043
192,1436800626461,54.9901456601847
193,1436800627104,46.4488035100452
194,1436800627700,17.7335276057037
195,1436800628405,48.4863561847957
196,1436800629127,43.8686739402621
197,1436800629870,26.9140022777015
198,1436800630581,45.2458720291437
199,1436800631310,45.9616425049596
200,1436800632059,16.3456527009621
201,1436800632736,43.7267856275669
202,1436800633468,30.5264727666724
203,1436800634188,41.6326760681149
204,1436800634918,51.561966285756
205,1436800635636,48.0433640508146
206,1436800636356,24.3470892146453
207,1436800637090,20.8727141371475
208,1436800637817,16.846927986598
209,1436800638500,31.8067530684837
210,1436800639166,46.5354118995137
211,1436800639923,17.3865093022783
212,1436800640671,57.0922457875924
213,1436800641382,42.9085715784137
214,1436800642127,31.335959220984
215,1436800642879,47.632030768936
216,1436800643595,32.9564975707886
217,1436800644317,26.83671550204
218,1436800645071,42.603086324434
219,1436800645831,25.9445618702448
220,1436800646582,64.3608013823435
221,1436800647357,60.7073528512959
222,1436800648108,43.0888269295947
223,1436800648864,63.3421185045998
224,1436800649676,46.6709089951217
225,1436800650391,29.5464858088142
226,1436800651097,38.0512371968888
227,1436800651744,30.0201485717197
228,1436800652423,30.1544547411821
229,1436800653104,53.2049077631792
230,1436800653785,32.5107661590725
231,1436800654496,60.0555242348738
232,1436800655231,35.9943211174878
233,1436800656010,32.703719414837
234,1436800656743,45.5996789659698
235,1436800657466,51.8119264722644
236,1436800658208,53.9007473335345
237,1436800658943,53.7304726283151
238,1436800659730,54.2478337550744
239,1436800660465,49.2276909846148
240,1436800661182,58.1682203260438
241,1436800661931,42.4336273397605
242,1436800662683,31.5808221325962
243,1436800663384,48.3586489388337
244,1436800664086,71.0368577917391
245,1436800664875,61.8996135035418
246,1436800665576,64.4685413035918
247,1436800666299,49.553844971273
248,1436800666986,31.6928658405034
249,1436800667737,25.9935428462068
250,1436800668474,44.9102473265901
251,1436800669263,56.9374961807029
252,1436800669968,46.4841111300809
253,1436800670711,40.3335560876242
254,1436800671437,25.7676011424088
255,1436800672160,40.5741828060694
256,1436800672875,26.2941714599866
257,1436800673605,58.1985284402902
258,1436800675612,24.8907061307107
259,1436800676331,39.0200894923676
260,1436800677086,48.1508063223305
261,1436800677847,44.1150296138445
262,1436800678557,44.9782774053127
263,1436800679356,34.7845141657545
264,1436800680080,48.3837947353999
265,1436800680816,46.3132282358962
266,1436800681540,27.7023059400769
267,1436800682251,30.1807579550003
268,1436800682988,54.9694940754635
269,1436800683717,28.1287810647222
270,1436800684418,28.799803706109
271,1436800685163,30.8099621717639
272,1436800685874,28.2774639168126
273,1436800686556,26.6482828935618
274,1436800687226,26.7211769629892
275,1436800687938,26.5514624699141
276,1436800689629,27.0215682633943
277,1436800690366,31.2336416060061
278,1436800691085,31.3611393506826
279,1436800691826,30.1979938849254
280,1436800692587,30.5802975739909
281,1436800693250,30.1412399807212
282,1436800693948,43.8130540790099
283,1436800694632,46.7986881413672
284,1436800695357,34.9972131582384
285,1436800696093,30.113372394056
286,1436800696738,56.3840115381398
287,1436800697480,60.7911953978649
288,1436800698208,34.4885886318555
289,1436800698947,35.2589325582831
290,1436800699680,40.9716280956071
291,1436800700402,50.1988389485944
292,1436800701130,36.9998794238994
293,1436800701859,63.3267278892851
294,1436800702583,41.8527606635343
295,1436800703333,40.5431199656121
296,1436800704039,37.3902106784227
297,1436800704778,37.3265724622104
298,1436800705520,38.0554471115378
299,1436800706238,38.1905018558902
300,1436800706956,42.8646841165627
301,1436800707767,38.2818540197853
302,1436800708507,38.6828267784152
303,1436800709228,46.2618440107966
304,1436800709946,64.3714573241301
305,1436800710688,39.8086364590493
306,1436800712679,41.0088440361576
307,1436800713412,39.4736628602785
308,1436800714149,61.3485068507008
309,1436800714859,36.8629855591487
310,1436800715452,52.9349267171805
311,1436800716163,38.9263125964818
312,1436800716890,53.5757177273107
313,1436800717625,56.9012870275931
314,1436800718359,59.9789361201923
315,1436800719067,38.3834155180394
316,1436800719849,38.9849886859893
317,1436800720558,62.8085317904231
318,1436800721251,53.5520613610265
319,1436800722001,38.5811594303854
320,1436800722726,36.8672613261805
321,1436800723453,46.7413600158486
322,1436800725442,35.5519277388919
323,1436800726076,46.1317144631839
324,1436800726786,34.4371037952982
325,1436800727522,57.277116176303
326,1436800728239,38.6178460668005
327,1436800728955,50.3468676832764
328,1436800729711,33.8186964097999
329,1436800730426,32.5501875504517
330,1436800731099,45.0952790193862
331,1436800731828,32.5387377675208
332,1436800732547,31.5986492362864
333,1436800733277,37.1612664111213
334,1436800734024,54.4368524366021
335,1436800734775,42.4791833543408
336,1436800735496,40.9772122211912
337,1436800736219,31.5065094029345
338,1436800736937,30.1986998437425
339,1436800737604,31.7292886090028
340,1436800738248,31.600140145725
341,1436800738978,32.3118985992468
342,1436800739711,31.3917753848239
343,1436800740388,29.8489140920321
344,1436800741062,35.5178079595247
345,1436800741798,28.5227461182049
346,1436800742502,26.8582753955112
347,1436800743179,25.8471640073267
348,1436800743895,28.8588628788647
349,1436800744597,23.4994607683637
350,1436800745329,26.1623586524569
351,1436800746050,23.5360671748274
352,1436800746809,54.4932286167659
353,1436800747554,57.9125521764297
354,1436800748277,53.0722347219458
355,1436800748998,44.8909836344591
356,1436800749756,59.4194398700563
357,1436800750471,35.8091721539843
358,1436800751197,54.0760406502719
359,1436800751932,50.923782739159
360,1436800752710,45.92748856756
361,1436800753385,25.7240880784023
362,1436800754122,49.1157537520168
363,1436800754854,32.4307410866278
364,1436800755560,42.0510386909202
365,1436800756232,27.9257728894085
366,1436800756909,44.5103239358199
367,1436800757629,60.7830670770797
368,1436800758351,53.0080382140331
369,1436800759089,54.0774570226991
370,1436800759847,26.8769272936195
371,1436800760550,34.3677409378102
372,1436800761268,28.7590486691896
373,1436800761982,26.1362629549917
374,1436800762758,25.3675734027646
375,1436800763473,39.9232393982352
376,1436800764135,24.1783223440121
377,1436800764861,60.9668481291715
378,1436800765581,26.1441769173429
379,1436800766299,22.9362829214062
380,1436800767056,56.0763386860768
381,1436800767789,49.5092107373373
382,1436800768566,22.4024734450215
383,1436800769164,48.8478306394702
384,1436800769843,38.8714313065397
385,1436800770566,58.1589300841986
386,1436800771299,58.6226603208645
387,1436800772011,51.1682787200994
388,1436800772767,58.0838246278423
389,1436800773492,50.3362189520421
390,1436800774251,55.9677518579107
391,1436800774975,45.3224776708519
392,1436800775732,26.2395195190333
393,1436800776466,34.8461700841284
394,1436800777169,45.1964390002441
395,1436800777895,20.5836401801824
396,1436800778640,43.475766279344
397,1436800779354,71.1572985502708
398,1436800779980,64.5283191198128
399,1436800780647,66.1495674606797
400,1436800781369,55.7801197226617
401,1436800782118,58.657704928554
402,1436800782860,41.9961801324407
403,1436800783575,41.7787940906833
404,1436800784279,44.2906367930084
405,1436800785004,39.4712352789296
406,1436800785785,49.6602950394269
407,1436800786514,41.2715025343244
408,1436800787227,33.4524885603603
409,1436800787932,51.4335136808857
410,1436800788621,53.4970079312785
411,1436800789350,36.0339568451137
412,1436800790082,16.9309568183738
413,1436800790837,44.2223105593149
414,1436800791528,36.1437762814482
415,1436800792258,53.6603227436035
416,1436800792945,49.7793203163173
417,1436800793639,19.535886301636
418,1436800794388,66.3607878536921
419,1436800795123,45.1999324900618
420,1436800795870,61.5060375021484
421,1436800796621,60.8853738075342
422,1436800797369,53.457615381192
423,1436800798125,39.1171152124131
424,1436800798853,48.6886197511941
425,1436800799592,21.096320883835
426,1436800800308,43.0336433526416
427,1436800801018,43.6826298793669
428,1436800801621,21.5366983521432
429,1436800802428,25.732387892213
430,1436800803156,60.0057340059756
431,1436800803876,45.5415130826248
432,1436800804479,26.8126626134963
433,1436800805186,26.3321157019708
434,1436800805893,49.1573944895497
435,1436800806646,41.9740279712005
436,1436800807368,37.7666958727441
437,1436800808155,46.9538022381526
438,1436800808856,48.4088197877558
439,1436800809582,47.2052795813142
440,1436800810294,30.1882232325659
441,1436800811013,24.4886617791865
442,1436800811767,34.0154921389049
443,1436800812549,27.304625830105
444,1436800813284,57.5025732841442
445,1436800813943,37.1414867512514
446,1436800814685,37.9183083566579
447,1436800815404,54.2600207474209
448,1436800816106,43.6813081357463
449,1436800816856,57.329339397486
450,1436800817551,42.108909766396
451,1436800818215,22.6390986006108
452,1436800818948,38.9206680152769
453,1436800819549,38.3217493273634
454,1436800820271,33.6968882070189
455,1436800821001,43.8778853586279
456,1436800821763,45.0909397629204
457,1436800822482,50.671207978539
458,1436800823202,23.4794295361724
459,1436800823929,55.0482848180013
460,1436800824633,55.9886122543048
461,1436800825306,49.1676743763724
462,1436800826015,57.2312336927215
463,1436800826732,51.1381863153037
464,1436800827446,65.5588587281893
465,1436800828177,47.8985095371908
466,1436800828929,40.5958970397969
467,1436800829638,61.706985468315
468,1436800830320,36.1333796386259
469,1436800831015,20.4633521523101
470,1436800831722,58.2348652720656
471,1436800832394,45.8644206086034
472,1436800833149,25.6021353501019
473,1436800833858,61.0274251890847
474,1436800834583,58.553565708565
475,1436800835306,46.2591558109551
476,1436800836010,49.3736100073226
477,1436800836766,40.803105804231
478,1436800837474,42.2576709736941
479,1436800838203,49.9999282784917
480,1436800838943,22.9782243197655
481,1436800839689,21.1471196086369
482,1436800840400,21.7582779981089
483,1436800841153,44.1143239063181
484,1436800841834,22.1796355963206
485,1436800842695,50.8776327696124
486,1436800843500,22.7655616566629
487,1436800844231,54.7754477406333
488,1436800845082,65.7462667776659
489,1436800845822,49.4474738402544
490,1436800846581,64.3801285562165
491,1436800847287,41.1358344438424
492,1436800847994,32.4835257685252
493,1436800848678,42.389440269715
494,1436800849479,28.0969947184179
495,1436800850200,21.6014177481772
496,1436800850925,38.3116251252037
497,1436800851651,31.4071151039827
498,1436800852380,25.0831030160399
499,1436800853088,47.3176837294029
500,1436800853784,46.1703324050762
501,1436800854504,40.6045642980274
502,1436800855248,32.1565939344641
503,1436800855950,31.348900602386
504,1436800856705,37.0239823413153
505,1436800857417,29.8157900786931
506,1436800858157,52.9222965117457
507,1436800858864,46.1647514944396
508,1436800859627,63.5747897198374
509,1436800860349,45.5203495909483
510,1436800861071,41.8543776766269
511,1436800861807,29.1360166405077
512,1436800862560,43.8263647751371
513,1436800863329,56.6076487256121
514,1436800864048,58.0157293256055
515,1436800864781,57.3195224106124
516,1436800865452,37.6022873407888
517,1436800866176,49.6942688798877
518,1436800866922,35.5114096320353
519,1436800867657,29.3031470829269
520,1436800868372,29.5310173010272
521,1436800869136,31.9314762314753
522,1436800869867,32.8701583078994
523,1436800870599,33.4021108911538
524,1436800871336,34.8046521956544
525,1436800872083,33.5669885334898
526,1436800872896,32.7588264935915
527,1436800873686,63.9360876006643
528,1436800874315,63.6982888757954
529,1436800874963,38.209149699717
530,1436800875655,36.8659829736273
531,1436800876387,41.4014339827987
532,1436800877108,32.8987632522894
533,1436800877772,29.4564945247797
534,1436800878436,31.9820547683498
535,1436800879900,27.8638965374396
536,1436800880573,47.9449553836828
537,1436800881291,47.4404889459326
538,1436800881992,57.4612681120464
539,1436800882763,50.6317059164457
540,1436800883460,44.3577105670968
541,1436800884173,37.3597442718003
542,1436800884881,27.8238884684296
543,1436800885625,27.810549124991
544,1436800886356,25.810726937229
545,1436800887074,25.9193522840256
546,1436800887819,61.9451911207179
547,1436800888545,26.2143756333611
548,1436800889174,28.42844898532
549,1436800889875,37.6872358108714
550,1436800890627,47.2762212221858
551,1436800891356,46.4261815318017
552,1436800892094,26.5542540935322
553,1436800892836,66.8576342051069
554,1436800893525,29.1110959806102
555,1436800894216,46.8820719814482
556,1436800894946,55.113436557207
557,1436800895673,64.0670483231419
558,1436800896348,58.4309713987199
559,1436800897747,36.12656952434
560,1436800898486,28.8312400002899
561,1436800899222,21.5523284874687
562,1436800899946,60.5944982935386
563,1436800900666,47.4997849948042
564,1436800901415,30.3297999974752
565,1436800902137,35.0103430399956
566,1436800902855,22.0644345305614
567,1436800903646,46.3892491183013
568,1436800904371,56.2641577682616
569,1436800905122,28.9953824650628
570,1436800905844,53.6403112600983
571,1436800906560,59.5222266033719
572,1436800907238,49.8319401338702
573,1436800907872,54.033713410087
574,1436800908566,53.7318608496257
575,1436800909280,45.432683667762
