id,attr_time,attr_db
1,1436800486922,38.9095004450009
2,1436800487568,39.5630401608311
3,1436800488281,37.4659820521499
4,1436800489005,34.416179213123
5,1436800489753,36.2593622216733
6,1436800490522,36.6574962452934
7,1436800491245,34.6520712322337
8,1436800491927,35.1376172158589
9,1436800492662,33.3915581193042
10,1436800493387,30.0310744084111
11,1436800494138,28.3339944717597
12,1436800494878,25.0316833289047
13,1436800495640,29.3166632757722
14,1436800496376,21.9741668923757
15,1436800497112,31.2345530863537
16,1436800497830,61.3920716350625
17,1436800498601,72.5965296396869
18,1436800499340,60.958480463922
19,1436800500068,55.3478798545954
20,1436800500808,59.847826618762
21,1436800501470,21.6947742077596
22,1436800502199,21.3471263966941
23,1436800502936,29.0331146043937
24,1436800503651,71.7068991827611
25,1436800504388,43.9140986708703
26,1436800505110,49.3126733547446
27,1436800505841,52.8321602685771
28,1436800506578,42.4165228651443
29,1436800507335,35.4068912115605
30,1436800508032,44.3264631998453
31,1436800508683,48.1640632739347
32,1436800509427,34.8726999266098
33,1436800510119,40.2757406725721
34,1436800510801,46.5637445785237
35,1436800511537,28.7284702964929
36,1436800512355,40.3849118700676
37,1436800513016,29.0876744806766
38,1436800513702,28.3565990142222
39,1436800514434,63.1240661846467
40,1436800515161,31.1010839914165
41,1436800515811,36.9708730140178
42,1436800516516,37.9566672453708
43,1436800517254,58.7592865650149
44,1436800517993,65.0050746745245
45,1436800518678,36.6086125165053
46,1436800519353,44.2230568988322
47,1436800520113,34.8958329665719
48,1436800520876,50.8383220214144
49,1436800521725,65.503308244249
50,1436800522337,47.7663473218705
51,1436800523066,50.8345546373612
52,1436800523791,57.2697058814532
53,1436800524512,59.1539774607795
54,1436800525237,47.0555668837044
55,1436800525967,41.6616355098837
56,1436800526705,44.5392877561719
57,1436800527483,43.2525488326654
58,1436800528215,32.7450752123267
59,1436800528954,25.8848789446839
60,1436800529681,52.4567474568567
61,1436800530404,43.8822474837837
62,1436800531113,50.065905814289
63,1436800531873,33.5431880871908
64,1436800532579,70.2630805738054
65,1436800533237,59.3839374909845
66,1436800533972,54.4989301401832
67,1436800534695,50.9247177706414
68,1436800535420,45.2147015029869
69,1436800536158,37.3688259447853
70,1436800536895,23.8253074704593
71,1436800537677,31.9059861874336
72,1436800538405,54.0392545540982
73,1436800539088,19.5216883974924
74,1436800539755,52.3899758139637
75,1436800540509,20.6918521876041
76,1436800541234,22.5848435727172
77,1436800541994,71.0701889449166
78,1436800542699,31.1043342699189
79,1436800543330,38.5880208066098
80,1436800544048,51.8326323711591
81,1436800544787,60.5599240291215
82,1436800545531,58.5373390911778
83,1436800546260,18.89677106994
84,1436800547011,26.0067901511964
85,1436800547782,44.8674117667681
86,1436800548531,65.8036179273532
87,1436800549239,56.6225638119251
88,1436800549964,39.278211332832
89,1436800550682,47.040350162275
90,1436800551413,21.7133821623485
91,1436800552168,25.4812707274956
92,1436800552879,69.3871226254472
93,1436800553619,24.3362146655506
94,1436800554356,49.9797491381984
95,1436800555135,41.577668224497
96,1436800555863,34.8768135772826
97,1436800556571,57.5165751846596
98,1436800557296,47.1674064306514
99,1436800558014,40.3315155883397
100,1436800558749,43.9738475535787
101,1436800559490,70.3068886731448
102,1436800560228,45.8898722801388
103,1436800560947,28.6666169949517
104,1436800561697,39.2393928422955
105,1436800562434,30.9258598286993
106,1436800563158,32.1533016178574
107,1436800563749,31.6855186198446
108,1436800564435,20.3572957638207
109,1436800565171,29.65698802976
110,1436800565899,29.9009832151491
111,1436800566598,20.2169958986886
112,1436800567312,57.5752536711895
113,1436800568050,61.8731258461843
114,1436800568762,17.23484530885
115,1436800569505,70.3319678924316
116,1436800570232,46.8162554477685
117,1436800570956,16.9270825604334
118,1436800571696,21.6752771950924
119,1436800572382,32.6748256423516
120,1436800573048,43.3883254594142
121,1436800573721,56.1264535906572
122,1436800574424,31.5878811491579
123,1436800575055,41.1742333050293
124,1436800575742,65.7919458686312
125,1436800576481,16.9669384136371
126,1436800577214,65.5432097202583
127,1436800577973,50.9114033381237
128,1436800578700,44.347801294408
129,1436800579434,60.9939656781632
130,1436800580189,43.3473850829834
131,1436800580929,20.5545066603453
132,1436800581672,17.8932714197508
133,1436800582334,57.6244779029432
134,1436800583084,19.8152980455792
135,1436800583773,38.6006608058902
136,1436800584486,37.9587985064124
137,1436800585096,35.3489412904495
138,1436800585806,32.823462189807
139,1436800586547,19.1385445681795
140,1436800587281,43.560635238451
141,1436800587998,41.052912266968
142,1436800588718,27.7732285407257
143,1436800589451,33.5967418977512
144,1436800590209,17.8446403036129
145,1436800590927,41.4260685094164
146,1436800591643,35.6094774071949
147,1436800592312,65.9224763281291
148,1436800593022,73.6538968731526
149,1436800593755,26.4827646106411
150,1436800594512,60.1510746020523
151,1436800595250,71.729729508897
152,1436800595958,47.6524485538832
153,1436800596618,26.1079818899661
154,1436800597343,37.7552512254479
155,1436800598081,47.8087811155202
156,1436800598811,28.3971606953469
157,1436800599538,70.8075674268604
158,1436800600272,56.160323956459
159,1436800601016,29.9701839194113
160,1436800601756,28.9589474271022
161,1436800602464,29.560634743719
162,1436800603107,45.5909015024144
163,1436800603780,45.6303954168923
164,1436800604457,71.7752897444828
165,1436800605197,28.2981465542031
166,1436800607244,62.7899215171219
167,1436800607985,55.4534414925975
168,1436800608716,51.7216290815412
169,1436800609468,40.301704654388
170,1436800610211,39.547185125912
171,1436800610937,45.3749751351523
172,1436800611725,72.5350331321796
173,1436800612521,61.8306658186938
174,1436800613181,43.6681428140623
175,1436800613902,25.7121159565461
176,1436800614678,69.7979426186779
177,1436800615403,75.0621286210024
178,1436800616135,69.3045301047418
179,1436800616831,25.5249070262147
180,1436800617521,23.2380102203282
181,1436800618230,22.6549411886829
182,1436800618921,21.7628574853067
183,1436800620869,20.2406420272521
184,1436800621553,22.4343465999853
185,1436800622287,22.3029229479493
186,1436800623005,23.0423954668693
187,1436800623668,50.2385850202478
188,1436800624433,67.0541157299231
189,1436800625187,50.0115868153565
190,1436800625919,66.5916682196657
191,1436800626669,67.0571149537733
192,1436800627528,52.3369459728202
193,1436800628279,35.0667700914017
194,1436800628938,51.6250516586839
195,1436800629540,57.5937051334214
196,1436800630224,40.4051552191497
197,1436800630945,50.752733824926
198,1436800631689,25.4694230671031
199,1436800632456,28.3849501141002
200,1436800633183,20.4796936673417
201,1436800633891,44.1644551235131
202,1436800634568,51.8269167710408
203,1436800635317,59.2736642929957
204,1436800636064,41.062730595601
205,1436800636805,47.5857983484468
206,1436800637525,45.2964566593039
207,1436800638194,43.3045355086843
208,1436800638959,48.0821523583787
209,1436800639698,48.540916156337
210,1436800640425,33.4712642715802
211,1436800641165,16.9790427556061
212,1436800641897,39.7881133206762
213,1436800644243,35.5876210625564
214,1436800644932,35.0571992480144
215,1436800645590,28.2016298577247
216,1436800646332,27.4137406099088
217,1436800647075,23.0002943413469
218,1436800647812,71.2769450650923
219,1436800648555,69.2609444607078
220,1436800649274,55.6732550583596
221,1436800649968,38.3319992342068
222,1436800650623,55.9782960224868
223,1436800651359,28.7428735050618
224,1436800652081,30.4773386464761
225,1436800652808,31.0219668394491
226,1436800653487,31.2593043334247
227,1436800654123,50.9331164540076
228,1436800654758,34.0796207323613
229,1436800655383,67.9349331475722
230,1436800656035,35.0344587350443
231,1436800657458,69.6089931232444
232,1436800658121,35.0326725789658
233,1436800658903,40.5023826258882
234,1436800659657,47.3793446612853
235,1436800660388,37.549086428322
236,1436800661112,51.4812732067237
237,1436800661792,45.6273582569279
238,1436800662487,46.6775354121682
239,1436800663257,32.4603583775493
240,1436800663956,36.4368284159207
241,1436800664673,72.9400726781182
242,1436800665398,43.9981160546943
243,1436800666077,73.5341890597667
244,1436800666783,49.1181970398201
245,1436800667528,42.9253096204947
246,1436800668269,28.2443571807794
247,1436800668948,40.0950278689877
248,1436800669639,43.8672136857486
249,1436800670382,47.0416074854606
250,1436800671122,36.3940886811431
251,1436800671864,40.6505877339317
252,1436800672607,27.0506652392339
253,1436800673364,46.2783964932552
254,1436800674104,24.8710341175666
255,1436800674832,26.6189365493261
256,1436800675561,39.0432327574489
257,1436800676264,27.423954412312
258,1436800676944,24.0803679231749
259,1436800677724,38.0216604544612
260,1436800678457,35.3466391896598
261,1436800679219,45.8942942351669
262,1436800679955,42.7680281241498
263,1436800680711,26.9836896081609
264,1436800681382,31.2917718303062
265,1436800682133,28.7324847837248
266,1436800682875,37.6319965267739
267,1436800683613,57.1750146396541
268,1436800684345,39.2374832866016
269,1436800685076,31.839888425808
270,1436800685835,43.4216842085111
271,1436800686546,39.7735841799433
272,1436800687240,32.6644794182448
273,1436800687946,28.4311054643259
274,1436800688645,28.1673333362861
275,1436800689369,28.2770171126488
276,1436800690102,29.8799421940771
277,1436800690811,29.1277957189354
278,1436800691555,30.5130603764635
279,1436800692215,30.1292673246377
280,1436800692982,31.8075126341541
281,1436800693731,31.8194440545269
282,1436800694725,30.722653341022
283,1436800695328,38.4230118681369
284,1436800696017,43.070249703045
285,1436800696760,32.9012339469966
286,1436800697480,35.1235856822021
287,1436800698168,75.6155381858082
288,1436800698897,36.7595345147887
289,1436800699607,38.318974314663
290,1436800700384,47.3266288701135
291,1436800701122,73.5788133060398
292,1436800701827,46.3613177863954
293,1436800702553,74.8060765284526
294,1436800703310,58.9759029396785
295,1436800704048,59.0016064993296
296,1436800704774,38.5660705948068
297,1436800705501,44.9701313987651
298,1436800706322,39.1628031938586
299,1436800706984,39.1604420105604
300,1436800707713,54.4794529261576
301,1436800708423,39.2854455095391
302,1436800709084,46.6878550216505
303,1436800709811,39.9173553410463
304,1436800710580,54.3929962711707
305,1436800711306,38.8779883528361
306,1436800711963,55.4251747516471
307,1436800712695,50.3774545770712
308,1436800713424,42.779273040781
309,1436800714160,37.6717462102188
310,1436800714883,42.8862813542591
311,1436800715615,39.0486582463058
312,1436800716363,40.4953581761629
313,1436800717094,38.67787508714
314,1436800717839,43.1202821512498
315,1436800718510,62.5504506134132
316,1436800719253,56.8108466551329
317,1436800719985,37.8885787290565
318,1436800720709,38.1460850568349
319,1436800721408,56.8430533614518
320,1436800722095,47.436291474826
321,1436800722747,37.9052145196399
322,1436800723439,40.8145580652338
323,1436800724178,51.8634019542727
324,1436800724894,44.787407419508
325,1436800725628,48.8651244781172
326,1436800726345,43.5454787561567
327,1436800727063,51.8733553039585
328,1436800727796,73.1957921321052
329,1436800728530,64.5617199582483
330,1436800729209,42.5624631414946
331,1436800729934,44.0995799173114
332,1436800730669,32.6328203270214
333,1436800731400,34.0130285168452
334,1436800732133,43.9848843445151
335,1436800732898,32.9383608129067
336,1436800733543,34.3833814682466
337,1436800734275,39.4958678774429
338,1436800735009,67.6817420243963
339,1436800735742,45.3171664145015
340,1436800736544,46.1776074667828
341,1436800737284,31.3341743569421
342,1436800738055,32.1156114028135
343,1436800738774,31.9531819772413
344,1436800739475,32.8347213142847
345,1436800740147,31.5421359868451
346,1436800740889,54.1115145076471
347,1436800741703,30.9685617157951
348,1436800742439,38.9404166527851
349,1436800743128,28.7978842800691
350,1436800743814,29.9127243491057
351,1436800744546,27.4384633755859
352,1436800745276,26.4307596890407
353,1436800746007,25.1000020249606
354,1436800746729,23.96750981238
355,1436800747396,48.4451630737114
356,1436800748149,45.2904052719683
357,1436800748877,55.1807831471638
358,1436800749620,33.5002718546767
359,1436800750305,45.7289191716399
360,1436800751029,50.947851851046
361,1436800751771,45.6946176029121
362,1436800752487,65.6881235808292
363,1436800753155,41.5994390837792
364,1436800753883,28.3809349831535
365,1436800754618,27.8885397488797
366,1436800755365,72.3765359892971
367,1436800756111,39.7921365011554
368,1436800756830,30.0369720488746
369,1436800757567,47.7857287927896
370,1436800758309,74.5055756483516
371,1436800759032,72.1660369056109
372,1436800759766,53.3497546846984
373,1436800760535,29.3296860170118
374,1436800761191,35.7829847623812
375,1436800761926,31.9260997732201
376,1436800762682,28.6700416213923
377,1436800763422,25.3443679574962
378,1436800764088,26.0498977999881
379,1436800764815,27.2941983167145
380,1436800765555,58.4540189708278
381,1436800766367,63.7410047036824
382,1436800767140,30.000920451818
383,1436800767804,70.1489719429657
384,1436800768577,72.6962460070268
385,1436800769314,25.8904563372375
386,1436800770067,67.151061769853
387,1436800770837,57.0399295779648
388,1436800771548,53.0584376804762
389,1436800772289,50.8826886686916
390,1436800773046,49.420132609119
391,1436800773814,49.5815039637331
392,1436800774610,53.3025589395565
393,1436800775328,50.4830029660134
394,1436800776022,39.3647975515373
395,1436800776763,71.654154139119
396,1436800777496,61.5066051537538
397,1436800778235,23.0470681311755
398,1436800778962,37.4422289630372
399,1436800779686,48.8829575723282
400,1436800780425,74.5215979235483
401,1436800781158,69.7662315912152
402,1436800781858,63.5613680961074
403,1436800782507,69.7615149548065
404,1436800783263,67.9800132183334
405,1436800784010,75.0245466431167
406,1436800784794,73.092604071056
407,1436800785509,46.5957752672782
408,1436800786252,57.9469227658509
409,1436800786973,41.0487662320756
410,1436800787693,41.2993173049352
411,1436800788415,39.1781906433735
412,1436800789133,43.8144129075091
413,1436800789894,44.7788453324919
414,1436800790632,17.0570145003087
415,1436800791373,33.069661947084
416,1436800792109,46.9101371484541
417,1436800792812,19.0697988478995
418,1436800793541,75.1718760843058
419,1436800794294,24.9906465012211
420,1436800795027,22.9670480473303
421,1436800795785,22.3399196813555
422,1436800796497,55.8672759501605
423,1436800797212,72.0260587362205
424,1436800797987,28.4711355429954
425,1436800798738,72.4751806100317
426,1436800799463,46.9874451426043
427,1436800800194,42.6719513968184
428,1436800800922,18.7660467809382
429,1436800801658,42.1887219678148
430,1436800802357,26.2785825125481
431,1436800803050,22.3375122540122
432,1436800803740,61.7452878344451
433,1436800804391,69.7533314679824
434,1436800805064,45.9447292630795
435,1436800805794,31.1670706449044
436,1436800806538,65.3293124984503
437,1436800807279,67.3468659593688
438,1436800808012,66.6534724923678
439,1436800808628,45.3990096040598
440,1436800809305,44.2831665606716
441,1436800811381,73.6332663436619
442,1436800812153,52.8189184004302
443,1436800812895,69.5282636773532
444,1436800813675,43.6273805145811
445,1436800814441,61.0713522476039
446,1436800815143,44.7811965746995
447,1436800815940,62.9210832600253
448,1436800816712,33.8544458414528
449,1436800817438,26.7837225323542
450,1436800818189,44.894907366257
451,1436800818911,30.7769392612036
452,1436800819637,50.6367229753914
453,1436800820369,39.4735254512782
454,1436800821084,42.1591899613286
455,1436800821840,43.1416800745191
456,1436800822579,49.9946295885254
457,1436800823312,53.468777819405
458,1436800824035,24.6112223422297
459,1436800824693,40.6467302535411
460,1436800825420,74.3537854227684
461,1436800826144,63.6607163343934
462,1436800826872,51.0765754184415
463,1436800827527,52.678300744154
464,1436800829029,47.6352267230655
465,1436800829723,50.6390310476532
466,1436800830443,66.4047724551269
467,1436800831178,30.3242130453242
468,1436800831903,22.5831081013306
469,1436800832637,62.2368900221543
470,1436800833369,70.3463088369171
471,1436800834071,23.4756807758443
472,1436800834725,68.0177564939153
473,1436800835379,59.307551549034
474,1436800836034,36.7521971289392
475,1436800836815,52.681241094677
476,1436800837587,57.6223701488384
477,1436800838326,42.814288534595
478,1436800839066,43.5469342272558
479,1436800839808,24.8848964073175
480,1436800840544,22.6379030453985
481,1436800841283,31.3013910507791
482,1436800842025,39.1731798358874
483,1436800842760,26.3584744779701
484,1436800843511,42.8519299506421
485,1436800844231,26.1175836152377
486,1436800844907,26.9354977688858
487,1436800845587,73.4193920515581
488,1436800846334,57.8499915275761
489,1436800847077,56.0696250282292
490,1436800847827,52.8621428690194
491,1436800848590,46.0886587266886
492,1436800849243,39.8681427754274
493,1436800849949,26.321914423382
494,1436800850693,47.0291314587993
495,1436800851429,20.0230949580707
496,1436800852163,29.8320080385352
497,1436800852914,27.0314212127662
498,1436800853637,45.6758434591779
499,1436800854357,57.833072673533
500,1436800855085,57.5995687828142
501,1436800855774,38.9039787906171
502,1436800856450,31.7949621085261
503,1436800857178,33.5111084891503
504,1436800857926,31.2122161853699
505,1436800858737,33.9557682027627
506,1436800860325,40.818666230043
507,1436800861057,55.9239271162832
508,1436800861791,51.7704264950234
509,1436800862527,41.879079441881
510,1436800863275,31.4710291249276
511,1436800864053,34.6291157794095
512,1436800864798,67.9703486132352
513,1436800865482,33.4332279573287
514,1436800866110,29.0277714102109
515,1436800866796,47.6894047025115
516,1436800867562,40.3337756938039
517,1436800868400,30.4525513000184
518,1436800869086,29.2905043789555
519,1436800869707,31.4165607367414
520,1436800870433,33.2224077522472
521,1436800871100,35.3240795041244
522,1436800871826,34.556486435409
523,1436800872564,34.0749663698011
524,1436800873301,41.4802381116783
525,1436800874024,34.2554225687494
526,1436800874766,68.3045283014112
527,1436800875502,52.6022627836172
528,1436800876223,46.2596683255284
529,1436800877944,37.3355318167776
530,1436800878626,55.9275575020403
531,1436800879349,36.1002047810952
532,1436800880097,33.2629388138425
533,1436800880832,31.9391680417338
534,1436800881573,42.2889070428539
535,1436800882308,33.5520734172346
536,1436800883071,33.6123614167499
537,1436800883839,28.8604457831245
538,1436800884571,55.7409146386157
539,1436800885294,31.2980700951046
540,1436800886033,29.001640111113
541,1436800886751,39.6133501500189
542,1436800887475,28.5151192683396
543,1436800888230,28.95616936545
544,1436800888950,39.547166520441
545,1436800889705,45.0065166290261
546,1436800890367,28.7001142166196
547,1436800891095,53.4061248443632
548,1436800891815,56.0792062544328
549,1436800892555,30.2401630282081
550,1436800893338,64.3517805131788
551,1436800894062,72.6850426724625
552,1436800894806,38.4466765373963
553,1436800895583,55.148885234745
554,1436800896324,71.8349012997271
555,1436800897012,75.7247301695752
556,1436800897682,54.4416546958246
557,1436800898488,51.2242943755095
558,1436800899221,49.6509935854123
559,1436800899936,24.7988962870587
560,1436800900703,67.4237978935046
561,1436800901438,51.523156746927
562,1436800902205,29.6147336343866
563,1436800902944,51.3863667536129
564,1436800903748,27.335227028429
565,1436800904502,45.1749455929209
566,1436800905239,51.6315228501903
567,1436800905992,42.8574389404283
568,1436800906713,41.6504005821057
569,1436800907449,72.9042197954142
570,1436800908189,58.2862183770796
571,1436800908824,50.3328958488828
572,1436800909545,41.8869081789151
573,1436800910201,31.0342198739041
574,1436800910838,60.3109510873141
575,1436800911506,52.6328439375912
