id,attr_time,attr_db
1,1436800487534,46.8948356208408
2,1436800488262,40.1928319379487
3,1436800488996,42.9023083502164
4,1436800489752,49.9350303302267
5,1436800490497,39.0960188591911
6,1436800491224,38.4787892939335
7,1436800491938,37.7178274064043
8,1436800492697,33.4317616379184
9,1436800493421,30.568627884733
10,1436800494129,29.4787666295716
11,1436800494881,28.5953601559788
12,1436800495616,27.5704503648265
13,1436800496346,26.7905642917532
14,1436800497074,25.8945997419018
15,1436800497811,20.9361128138316
16,1436800498557,32.0539306471285
17,1436800499269,23.4777394812877
18,1436800499998,41.6665431738123
19,1436800500779,67.5934058074815
20,1436800501516,65.2084533691174
21,1436800502245,70.0352587348752
22,1436800502979,62.554626772223
23,1436800503749,40.4693608355083
24,1436800504485,43.0916577245606
25,1436800505206,33.1858751676134
26,1436800505963,30.0613776743744
27,1436800506720,58.2894617367866
28,1436800507394,41.018164308295
29,1436800508065,47.9458488158276
30,1436800508777,55.4897085085538
31,1436800509525,31.3232865510584
32,1436800510251,28.9190269993824
33,1436800511057,48.6241845217495
34,1436800511807,41.0510696318532
35,1436800512557,24.7563621135739
36,1436800513280,49.2854523401882
37,1436800514018,57.9834146619146
38,1436800514759,38.3054807366488
39,1436800515579,39.18188957795
40,1436800516331,29.2649672867803
41,1436800517059,66.3478150380851
42,1436800517811,50.7739164918116
43,1436800518565,38.9029781513385
44,1436800519247,38.720713273446
45,1436800519992,31.7800650133634
46,1436800520737,38.7975170567328
47,1436800521455,50.8355132626816
48,1436800522184,52.4769421821941
49,1436800522925,36.7021919740061
50,1436800523688,57.9658077473229
51,1436800524408,40.7742860854984
52,1436800525121,43.5989262676254
53,1436800525827,56.1537899609276
54,1436800526561,56.174757814175
55,1436800527302,57.4018716242648
56,1436800528037,62.2828948049764
57,1436800528750,60.843301828005
58,1436800529495,40.3327603293956
59,1436800530217,64.1271637052297
60,1436800530975,46.1981046456575
61,1436800531718,27.6573347887336
62,1436800532393,37.2180195748988
63,1436800533057,50.3213900639965
64,1436800533808,47.5903663677035
65,1436800534536,52.2517322735306
66,1436800535243,41.8223034173753
67,1436800535984,45.3635898584236
68,1436800536727,52.5415391208897
69,1436800537454,38.4627579415049
70,1436800538182,32.8451934026603
71,1436800538916,39.1640156652787
72,1436800539699,23.2565603364631
73,1436800540383,47.908507932132
74,1436800541048,22.5250673453029
75,1436800541790,20.1145318455605
76,1436800542586,49.4182861292762
77,1436800543336,18.9333668222773
78,1436800544072,22.2356633621467
79,1436800544843,46.2959044704986
80,1436800545606,20.3342332605909
81,1436800546338,27.6379403295174
82,1436800547067,47.4235489844725
83,1436800547822,43.659192263801
84,1436800548637,39.4106575346052
85,1436800549357,29.1095707220961
86,1436800550080,21.8160116161779
87,1436800550797,27.9856293732523
88,1436800551540,48.6419972719498
89,1436800552272,40.4568429810059
90,1436800553018,38.7996100815801
91,1436800553717,45.2102906749738
92,1436800554444,52.9949219160281
93,1436800555158,51.8974107106095
94,1436800555872,61.9061339341835
95,1436800556630,22.0349917852354
96,1436800557367,44.2796428479921
97,1436800558086,42.1469501759176
98,1436800558849,31.3373483769572
99,1436800559602,44.2143500786105
100,1436800560328,55.3881320656259
101,1436800561041,38.1337146409608
102,1436800563042,54.8306209398936
103,1436800563690,39.0200343963011
104,1436800564427,21.9072082559094
105,1436800565161,18.6422761773425
106,1436800565885,20.1631170640518
107,1436800566638,44.6662463755322
108,1436800567349,26.094042316904
109,1436800568066,31.8874052226757
110,1436800568796,48.6208557569899
111,1436800569532,23.0417761857071
112,1436800570286,41.150398605054
113,1436800572018,22.2914761180579
114,1436800572639,54.311498598579
115,1436800573319,34.5529155871534
116,1436800574108,46.8133886000369
117,1436800574863,41.5025113897331
118,1436800575621,53.9421187896885
119,1436800576354,49.6056833602068
120,1436800577072,42.393006826575
121,1436800577796,40.6784218189311
122,1436800578504,45.6111001418508
123,1436800579092,61.4378465023067
124,1436800579771,39.8698604542306
125,1436800580548,51.283738556248
126,1436800581270,36.8383534082747
127,1436800581994,53.1434579086977
128,1436800582765,26.4298967690026
129,1436800583469,40.4150706829304
130,1436800584068,16.5373236494855
131,1436800584743,18.2924876287907
132,1436800585472,34.1261253141243
133,1436800587622,34.9066640793426
134,1436800588302,30.7379774941467
135,1436800589037,35.8335096487879
136,1436800589773,22.0307504911421
137,1436800590568,21.8487309671249
138,1436800591293,31.6270367312152
139,1436800592031,60.4226414640317
140,1436800592777,38.5643840322968
141,1436800593516,16.9140803314064
142,1436800594261,47.4240196118635
143,1436800594922,28.449296188946
144,1436800596227,34.3090766012962
145,1436800596955,19.3034154072907
146,1436800597696,56.9148382365293
147,1436800598426,64.7939642136681
148,1436800599177,32.8145408588533
149,1436800599899,31.4136163673443
150,1436800600728,42.9357211081889
151,1436800601449,28.7913742813483
152,1436800602179,28.1810525217476
153,1436800602920,39.9734516279919
154,1436800603656,38.7579070427842
155,1436800604383,29.3661625336033
156,1436800605128,31.3332014129763
157,1436800605917,45.7198795008112
158,1436800606601,32.8258006209377
159,1436800607277,31.1784751071202
160,1436800608048,36.3151125069513
161,1436800608772,27.2333094486949
162,1436800609510,26.0274740043294
163,1436800610263,51.5474432270026
164,1436800611038,46.2315374582977
165,1436800611767,53.0522689142939
166,1436800612499,45.8818678754588
167,1436800613225,27.8826205803881
168,1436800613957,50.079217652536
169,1436800614681,62.8328464150305
170,1436800615421,41.9844851738863
171,1436800616150,51.5990580286709
172,1436800616923,23.4310286302868
173,1436800617648,62.6706014162791
174,1436800618396,67.0981153502015
175,1436800619082,44.6528045869772
176,1436800619764,24.8712500735787
177,1436800620525,22.8231523820399
178,1436800621252,23.4381265814279
179,1436800622007,23.7204198362722
180,1436800622787,24.2314977096079
181,1436800623531,23.0316773760059
182,1436800624247,23.867856827185
183,1436800624909,23.5117767232652
184,1436800625677,24.4699118564048
185,1436800626399,21.7861704470731
186,1436800627124,50.1052092583975
187,1436800627883,60.4412966568081
188,1436800628582,62.4493758667893
189,1436800629173,57.629705390181
190,1436800629871,61.5560927218703
191,1436800630604,51.7269105912939
192,1436800631337,42.8934262550748
193,1436800632068,58.5658494233844
194,1436800632797,49.5410758444571
195,1436800633550,39.3132017747838
196,1436800634272,49.9628186726097
197,1436800634933,41.2559171034348
198,1436800635656,53.2653543534616
199,1436800636398,18.8642517298601
200,1436800637126,24.3382002433552
201,1436800637862,55.7300772338438
202,1436800638593,31.1213483603052
203,1436800639315,49.9424437007178
204,1436800639976,24.3858167241768
205,1436800640693,50.4075702512314
206,1436800641417,29.3267025198461
207,1436800642149,22.0676884842962
208,1436800642877,57.4684252465755
209,1436800643667,18.218954898172
210,1436800644384,58.2642392164647
211,1436800645114,38.1303751906014
212,1436800645842,37.3212045068211
213,1436800646591,44.863334037549
214,1436800647303,36.0450728936597
215,1436800648064,41.1282554908109
216,1436800648786,34.7717617788857
217,1436800649514,39.3958819003772
218,1436800650252,43.1037321025349
219,1436800650987,53.0627537606717
220,1436800651659,54.7914718615841
221,1436800652389,63.8299838770061
222,1436800653138,49.1721475572697
223,1436800653859,51.043382308124
224,1436800654650,29.2816704906386
225,1436800655391,30.5004733791352
226,1436800656081,29.0760952991621
227,1436800656778,30.2030774500231
228,1436800657523,50.9591760190493
229,1436800658267,63.7142350856462
230,1436800658978,45.3993119612865
231,1436800659654,33.70585316238
232,1436800660380,51.7119323200164
233,1436800661177,35.5845163164775
234,1436800661831,42.9141688726562
235,1436800662582,37.9203367165274
236,1436800663353,43.9557757461804
237,1436800664085,49.2746804124669
238,1436800664808,34.2217116872812
239,1436800665604,54.7181074595513
240,1436800666326,32.500260884519
241,1436800667061,32.1967628813963
242,1436800667772,53.7155611886629
243,1436800668509,34.3255661743241
244,1436800669238,58.135784236235
245,1436800669983,57.7968483490875
246,1436800670732,58.072312784183
247,1436800671474,27.7842757885706
248,1436800672204,51.3387962351085
249,1436800672949,38.9590866781632
250,1436800673703,55.6771248580469
251,1436800674440,54.6652051499438
252,1436800675146,26.3694552058916
253,1436800675869,30.781338505762
254,1436800676488,28.6910751590094
255,1436800677193,25.3602039135033
256,1436800677959,39.8528763987586
257,1436800678712,41.5187630339794
258,1436800679418,25.3868207091568
259,1436800680156,47.6511064082861
260,1436800680888,43.4013848780205
261,1436800681687,51.7206117495307
262,1436800682431,45.4323599650539
263,1436800683182,34.2907147400028
264,1436800683929,30.4594059479025
265,1436800684694,57.6430933011144
266,1436800685367,28.220090307544
267,1436800686097,34.5368663166963
268,1436800686815,53.0293733032121
269,1436800687564,54.9517152341506
270,1436800688311,28.3116459028072
271,1436800689035,32.2866672232568
272,1436800689762,29.702402403484
273,1436800690523,28.2907405296244
274,1436800691395,28.0649173549396
275,1436800692145,28.2028829897844
276,1436800692848,30.093762495933
277,1436800693506,27.6353659900463
278,1436800694178,30.4228538968521
279,1436800694885,33.3344512465896
280,1436800695604,30.760361343134
281,1436800696324,32.0941843193692
282,1436800697049,34.2392620742439
283,1436800697783,56.5437115373483
284,1436800698537,45.6516612723543
285,1436800699259,38.5089693667778
286,1436800699995,32.7641765810871
287,1436800700729,40.2265268008965
288,1436800701471,38.4296146178897
289,1436800702192,36.8845441629722
290,1436800702942,39.5177807400279
291,1436800703731,60.4827680907775
292,1436800704471,43.5603478100239
293,1436800705177,36.8116426444797
294,1436800705857,48.2184450568621
295,1436800706504,40.6674983548896
296,1436800707226,40.2105164132758
297,1436800708012,39.4472788460344
298,1436800708769,39.5944246064398
299,1436800709488,37.7246370719008
300,1436800710222,39.1430942798008
301,1436800710981,44.9600607707361
302,1436800711720,38.8680778792543
303,1436800712400,41.8729855333489
304,1436800713117,49.609558567715
305,1436800713855,66.6994999117397
306,1436800714543,40.1714870763211
307,1436800715166,43.4092095881826
308,1436800715869,57.0080823647537
309,1436800716594,45.279873517964
310,1436800717269,39.2814521517937
311,1436800718015,61.6590578703438
312,1436800718758,39.7228965890377
313,1436800719489,41.1632133893193
314,1436800720221,38.4004686502186
315,1436800720902,42.6341052572092
316,1436800721671,55.7156658357722
317,1436800722395,39.8819404146388
318,1436800723133,39.2415630276225
319,1436800723921,38.9299351789657
320,1436800724685,39.0906991904794
321,1436800725384,48.3142069687278
322,1436800726053,57.8907053451653
323,1436800726789,38.1902742413191
324,1436800727530,51.1874851851746
325,1436800728252,46.6595145872109
326,1436800728987,48.223590000251
327,1436800729807,41.3944482985457
328,1436800730412,34.2726984532068
329,1436800731104,50.9145694739861
330,1436800731838,34.498706879405
331,1436800732492,36.0904218307627
332,1436800733239,47.374651363727
333,1436800733986,33.4289598148643
334,1436800734747,32.7722283764061
335,1436800735562,33.5554865339096
336,1436800736212,33.6371031109314
337,1436800736946,33.6253653012608
338,1436800737690,33.8875345326781
339,1436800738379,55.0940200060021
340,1436800738997,40.0353924939285
341,1436800739700,34.9103047765585
342,1436800740353,31.7278047230457
343,1436800740991,31.8848538638138
344,1436800741720,30.6695308736725
345,1436800742433,31.2972017696809
346,1436800743160,30.3457762185134
347,1436800744503,48.1279796931075
348,1436800745127,37.855236215018
349,1436800745791,28.8993961924747
350,1436800746524,27.3169347516857
351,1436800747256,25.8873772377847
352,1436800747996,27.4387842477439
353,1436800748732,25.4288004804081
354,1436800749406,26.5986712766518
355,1436800750138,26.6179887155323
356,1436800750916,42.085582072561
357,1436800751572,43.1021639885221
358,1436800752306,41.5641047323244
359,1436800753033,36.6057884691764
360,1436800753764,29.0216218100683
361,1436800754516,25.9841301553292
362,1436800755263,28.9103072093436
363,1436800755976,38.4306737859107
364,1436800756719,41.2799677578204
365,1436800757474,27.5966290388677
366,1436800758191,61.7636404210703
367,1436800758965,41.4999993760646
368,1436800759728,36.5325070320203
369,1436800760408,30.0223656793294
370,1436800761111,65.9530374450887
371,1436800761737,69.4961884820336
372,1436800762400,51.7922026157986
373,1436800763130,53.0495483633522
374,1436800763855,30.635146127856
375,1436800764626,30.3697957400316
376,1436800765292,28.2711601287372
377,1436800767124,26.2157724520547
378,1436800767799,26.9655436992791
379,1436800768547,52.3682793513271
380,1436800769253,54.6559256176461
381,1436800770001,38.9154286371581
382,1436800770755,59.5729536359843
383,1436800771500,42.6248088544115
384,1436800772236,23.3876572092414
385,1436800772939,30.4056735893885
386,1436800773628,28.149666192619
387,1436800774346,50.9290789751639
388,1436800775076,55.1754503847501
389,1436800775825,39.6325177057274
390,1436800776576,58.6835011663846
391,1436800777319,65.1165481847433
392,1436800778026,51.4477519195717
393,1436800778732,46.9173687221034
394,1436800780478,42.166158829799
395,1436800781208,34.2648024134862
396,1436800781932,56.3126366262917
397,1436800782666,40.5551453084056
398,1436800783391,72.5070665170002
399,1436800784073,71.0808878015229
400,1436800784754,40.4786851708923
401,1436800785568,28.2373962162637
402,1436800786326,58.4231529920842
403,1436800787046,69.7061989574156
404,1436800787760,42.9233560330799
405,1436800788481,40.6940563186707
406,1436800789207,35.2244660636711
407,1436800789929,51.808391043511
408,1436800790730,19.7612077985932
409,1436800791533,40.8437859651819
410,1436800792214,41.826604840952
411,1436800792960,48.4883315953999
412,1436800793715,19.6457938184851
413,1436800794469,32.6525847443687
414,1436800795194,48.8618262968433
415,1436800795937,20.1126761470341
416,1436800796793,41.1527111938471
417,1436800797455,21.8654883034019
418,1436800798186,45.8254752280718
419,1436800798947,22.9146796603638
420,1436800799704,42.0003739830064
421,1436800800455,62.6007857242437
422,1436800801239,63.5454816057272
423,1436800801889,53.5976563597318
424,1436800803283,24.6837228603023
425,1436800803950,27.9951423476934
426,1436800804676,44.2530391034426
427,1436800805410,21.2250561315354
428,1436800806144,55.9624345265423
429,1436800806894,58.0477026178548
430,1436800807587,51.2317730941484
431,1436800808248,52.5088152623655
432,1436800809003,31.0026079145339
433,1436800809748,57.1926497523869
434,1436800810510,57.2228294206198
435,1436800811298,34.3811142297689
436,1436800812041,55.1991517035615
437,1436800812776,56.0026971294427
438,1436800813540,56.3732566765513
439,1436800814269,49.5846551387303
440,1436800814969,23.9845812963288
441,1436800816628,27.0724412779309
442,1436800817308,52.5045692814444
443,1436800818045,38.7165214838689
444,1436800818773,50.3562127425065
445,1436800819528,47.3713285078251
446,1436800820260,59.9928507258534
447,1436800821044,60.5596350328121
448,1436800821876,34.4256183556617
449,1436800822639,61.3356991454003
450,1436800823367,39.4641310109912
451,1436800824092,36.1408480105005
452,1436800824855,41.0561535116824
453,1436800825658,53.3024855151217
454,1436800826388,57.1843829650328
455,1436800827126,25.8994574578687
456,1436800827857,61.7383730563279
457,1436800828610,38.0939558936645
458,1436800829322,26.8072252037286
459,1436800830067,44.7289251688226
460,1436800830804,45.7946259631104
461,1436800831547,43.1710265710034
462,1436800832265,45.7613011850941
463,1436800832996,53.76958982244
464,1436800833730,69.4805272955662
465,1436800834465,21.0602796257834
466,1436800835183,24.2151401448293
467,1436800835921,54.7333312816264
468,1436800836700,49.523312770333
469,1436800837422,24.0148124761511
470,1436800838149,54.2807028886049
471,1436800838881,50.1748081232552
472,1436800839633,52.3500283318462
473,1436800840459,67.1687839777801
474,1436800841183,48.4710707473223
475,1436800841872,22.2770792681322
476,1436800842646,25.7598258864236
477,1436800843378,59.6812731521324
478,1436800844100,21.1329430620094
479,1436800844929,56.3205368680671
480,1436800845736,27.1309963170845
481,1436800846454,53.052969667818
482,1436800847179,25.1020286127549
483,1436800847920,25.5478034665814
484,1436800848666,68.3758867281994
485,1436800849405,59.6262781780874
486,1436800850155,60.2946543616156
487,1436800850907,43.5246637632425
488,1436800851579,45.9060687707224
489,1436800852318,41.7865719055936
490,1436800853060,27.6010754001585
491,1436800853787,50.4741521153397
492,1436800854554,24.3726335170854
493,1436800855282,36.2904791077517
494,1436800856012,26.99799384237
495,1436800856726,31.638873415652
496,1436800857407,53.3233597743525
497,1436800858145,61.8810793445473
498,1436800858884,39.4508653617557
499,1436800859662,33.020446566028
500,1436800860408,44.1280806249888
501,1436800861134,29.206914554561
502,1436800861817,29.3076897095226
503,1436800862415,53.3709207040165
504,1436800863140,60.5749842069773
505,1436800863856,44.3595611721853
506,1436800864630,58.1332564250181
507,1436800865353,54.0366330001278
508,1436800866071,30.5252744478239
509,1436800866795,56.4635873932963
510,1436800867545,42.7059833440203
511,1436800868272,48.8439601138279
512,1436800869008,47.6730302086119
513,1436800869787,60.6319911088362
514,1436800870527,47.4303551841317
515,1436800871246,35.9164190891121
516,1436800871937,29.8424305737914
517,1436800872599,29.6652017707089
518,1436800873352,32.9093627284096
519,1436800874066,33.1837116058905
520,1436800874820,34.4676736100526
521,1436800875558,34.3888467451699
522,1436800876290,33.4613307996289
523,1436800876962,32.0584357118213
524,1436800877625,66.6225724652767
525,1436800878364,58.9507001940836
526,1436800879097,41.4938466197729
527,1436800879831,62.0039338924776
528,1436800880572,53.5593997912104
529,1436800881301,48.6277333244838
530,1436800882067,46.8604084534487
531,1436800882703,49.3888869887394
532,1436800883384,33.5167634993749
533,1436800884120,42.0105452361969
534,1436800884850,39.6949602608325
535,1436800885610,47.6224121334829
536,1436800886322,27.7856559754969
537,1436800887046,66.644218150585
538,1436800887781,63.6304840490124
539,1436800888546,39.3030027929218
540,1436800889278,28.3018537448539
541,1436800890024,31.1704023643578
542,1436800890802,27.6501996459364
543,1436800891544,64.0210784246281
544,1436800892295,28.1173638513081
545,1436800893020,29.7336818594278
546,1436800893795,35.6113058230816
547,1436800894547,51.0437179451026
548,1436800895278,40.1229173164965
549,1436800896075,30.233453181515
550,1436800896821,53.6136624617738
551,1436800897455,26.9717466432003
552,1436800898142,52.9618526994825
553,1436800898918,64.7614164039289
554,1436800899686,67.1435000338487
555,1436800900468,69.4270331192637
556,1436800901200,45.7618459761596
557,1436800901946,23.9181782449066
558,1436800902684,24.4877176045322
559,1436800903415,25.2943062347035
560,1436800904140,29.5289516090368
561,1436800904863,38.0733720390325
562,1436800905608,37.5260094010848
563,1436800906342,27.0825850648909
564,1436800907071,64.4423913340133
565,1436800907795,33.0815423362474
566,1436800908531,60.4988159613527
567,1436800909253,48.2295135689412
568,1436800909972,32.7572347557033
569,1436800910615,51.190427453799
570,1436800911323,60.5040176112832
571,1436800912047,41.4321216166318
572,1436800912786,60.0457944646656
573,1436800913529,66.4561191722424
574,1436800914258,47.1827926649916
575,1436800915006,53.36864990352
