id,attr_time,attr_light
1,1436799258022,33.0
2,1436799258042,33.0
3,1436799258062,33.0
4,1436799258079,33.0
5,1436799258102,33.0
6,1436799258122,33.0
7,1436799258142,33.0
8,1436799258157,33.0
9,1436799258179,33.0
10,1436799258198,33.0
11,1436799258218,33.0
12,1436799258239,33.0
13,1436799258261,33.0
14,1436799258280,33.0
15,1436799258301,33.0
16,1436799258322,33.0
17,1436799258339,33.0
18,1436799258357,33.0
19,1436799258380,33.0
20,1436799258398,33.0
21,1436799258432,33.0
22,1436799258439,33.0
23,1436799258458,33.0
24,1436799258479,33.0
25,1436799258498,33.0
26,1436799258518,33.0
27,1436799258539,33.0
28,1436799258559,33.0
29,1436799258579,33.0
30,1436799258602,33.0
31,1436799258621,33.0
32,1436799258645,33.0
33,1436799258660,33.0
34,1436799258682,33.0
35,1436799258701,33.0
36,1436799258722,33.0
37,1436799258742,33.0
38,1436799258762,33.0
39,1436799258782,33.0
40,1436799258800,33.0
41,1436799258822,33.0
42,1436799258842,33.0
43,1436799258862,33.0
44,1436799258881,33.0
45,1436799258902,33.0
46,1436799258922,33.0
47,1436799258941,33.0
48,1436799258962,33.0
49,1436799258981,33.0
50,1436799259002,33.0
51,1436799259021,33.0
52,1436799259042,33.0
53,1436799259061,33.0
54,1436799259079,33.0
55,1436799259134,33.0
56,1436799259135,33.0
57,1436799259146,33.0
58,1436799259161,33.0
59,1436799259180,33.0
60,1436799259203,33.0
61,1436799259219,33.0
62,1436799259245,33.0
63,1436799259261,33.0
64,1436799259280,33.0
65,1436799259300,33.0
66,1436799259320,33.0
67,1436799259343,33.0
68,1436799259362,34.0
69,1436799259382,34.0
70,1436799259402,34.0
71,1436799259423,34.0
72,1436799259442,34.0
73,1436799259462,34.0
74,1436799259482,34.0
75,1436799259502,34.0
76,1436799259523,34.0
77,1436799259540,34.0
78,1436799259561,34.0
79,1436799259583,34.0
80,1436799259601,34.0
81,1436799259619,34.0
82,1436799259639,34.0
83,1436799259663,34.0
84,1436799259683,34.0
85,1436799259703,34.0
86,1436799259720,34.0
87,1436799259741,34.0
88,1436799259761,34.0
89,1436799259781,34.0
90,1436799259802,34.0
91,1436799259823,34.0
92,1436799259881,34.0
93,1436799259882,34.0
94,1436799259893,34.0
95,1436799259899,34.0
96,1436799259920,34.0
97,1436799259941,34.0
98,1436799259960,34.0
99,1436799259980,34.0
100,1436799260000,34.0
101,1436799260024,34.0
102,1436799260040,34.0
103,1436799260062,34.0
104,1436799260084,34.0
105,1436799260100,34.0
106,1436799260123,34.0
107,1436799260143,34.0
108,1436799260163,34.0
109,1436799260183,34.0
110,1436799260203,34.0
111,1436799260223,34.0
112,1436799260241,34.0
113,1436799260263,34.0
114,1436799260282,34.0
115,1436799260303,34.0
116,1436799260322,34.0
117,1436799260341,34.0
118,1436799260362,34.0
119,1436799260383,34.0
120,1436799260403,34.0
121,1436799260423,34.0
122,1436799260442,34.0
123,1436799260462,34.0
124,1436799260482,34.0
125,1436799260503,34.0
126,1436799260521,34.0
127,1436799260541,34.0
128,1436799260595,34.0
129,1436799260596,34.0
130,1436799260613,34.0
131,1436799260620,34.0
132,1436799260642,34.0
133,1436799260664,34.0
134,1436799260680,34.0
135,1436799260705,34.0
136,1436799260722,34.0
137,1436799260742,34.0
138,1436799260762,34.0
139,1436799260781,34.0
140,1436799260804,34.0
141,1436799260824,34.0
142,1436799260844,34.0
143,1436799260863,34.0
144,1436799260884,34.0
145,1436799260904,34.0
146,1436799260924,34.0
147,1436799260944,34.0
148,1436799260961,34.0
149,1436799260984,34.0
150,1436799261001,34.0
151,1436799261022,34.0
152,1436799261044,34.0
153,1436799261061,34.0
154,1436799261082,34.0
155,1436799261104,34.0
156,1436799261124,34.0
157,1436799261144,34.0
158,1436799261169,34.0
159,1436799261184,34.0
160,1436799261205,34.0
161,1436799261223,34.0
162,1436799261243,34.0
163,1436799261263,34.0
164,1436799261281,34.0
165,1436799261335,34.0
166,1436799261336,34.0
167,1436799261350,34.0
168,1436799261361,34.0
169,1436799261387,34.0
170,1436799261419,34.0
171,1436799261422,34.0
172,1436799261444,34.0
173,1436799261465,34.0
174,1436799261486,34.0
175,1436799261502,34.0
176,1436799261524,35.0
177,1436799261542,35.0
178,1436799261565,34.0
179,1436799261584,34.0
180,1436799261605,34.0
181,1436799261625,34.0
182,1436799261645,34.0
183,1436799261665,34.0
184,1436799261685,34.0
185,1436799261706,34.0
186,1436799261721,35.0
187,1436799261745,35.0
188,1436799261764,34.0
189,1436799261784,35.0
190,1436799261806,35.0
191,1436799261825,35.0
192,1436799261845,35.0
193,1436799261865,35.0
194,1436799261885,35.0
195,1436799261904,35.0
196,1436799261926,35.0
197,1436799261946,35.0
198,1436799261966,35.0
199,1436799262049,35.0
200,1436799262050,35.0
201,1436799262051,35.0
202,1436799262066,35.0
203,1436799262067,35.0
204,1436799262083,35.0
205,1436799262107,35.0
206,1436799262122,35.0
207,1436799262143,35.0
208,1436799262165,35.0
209,1436799262182,35.0
210,1436799262202,35.0
211,1436799262223,35.0
212,1436799262284,35.0
213,1436799262285,35.0
214,1436799262286,35.0
215,1436799262302,35.0
216,1436799262322,35.0
217,1436799262342,35.0
218,1436799262362,35.0
219,1436799262382,35.0
220,1436799262402,35.0
221,1436799262422,35.0
222,1436799262442,35.0
223,1436799262462,35.0
224,1436799262482,35.0
225,1436799262502,35.0
226,1436799262522,35.0
227,1436799262542,35.0
228,1436799262562,35.0
229,1436799262582,35.0
230,1436799262602,35.0
231,1436799262622,35.0
232,1436799262643,35.0
233,1436799262667,35.0
234,1436799262684,36.0
235,1436799262702,36.0
236,1436799262728,36.0
237,1436799262742,36.0
238,1436799262762,36.0
239,1436799262782,36.0
240,1436799262804,37.0
241,1436799262822,37.0
242,1436799262843,37.0
243,1436799262863,38.0
244,1436799262885,38.0
245,1436799262905,38.0
246,1436799262923,38.0
247,1436799262942,39.0
248,1436799262963,39.0
249,1436799262984,40.0
250,1436799263003,40.0
251,1436799263023,42.0
252,1436799263045,42.0
253,1436799263066,43.0
254,1436799263082,43.0
255,1436799263106,44.0
256,1436799263126,46.0
257,1436799263146,46.0
258,1436799263166,47.0
259,1436799263185,47.0
260,1436799263204,49.0
261,1436799263225,49.0
262,1436799263244,49.0
263,1436799263268,49.0
264,1436799263288,50.0
265,1436799263308,50.0
266,1436799263327,50.0
267,1436799263350,50.0
268,1436799263432,50.0
269,1436799263433,50.0
270,1436799263434,50.0
271,1436799263435,49.0
272,1436799263486,49.0
273,1436799263487,48.0
274,1436799263488,48.0
275,1436799263512,46.0
276,1436799263523,46.0
277,1436799263558,44.0
278,1436799263563,44.0
279,1436799263584,43.0
280,1436799263609,43.0
281,1436799263623,41.0
282,1436799263643,41.0
283,1436799263665,39.0
284,1436799263683,38.0
285,1436799263705,38.0
286,1436799263725,37.0
287,1436799263746,37.0
288,1436799263764,35.0
289,1436799263785,35.0
290,1436799263803,34.0
291,1436799263828,34.0
292,1436799263844,34.0
293,1436799263866,34.0
294,1436799263884,34.0
295,1436799263904,34.0
296,1436799263924,35.0
297,1436799263944,35.0
298,1436799263968,36.0
299,1436799263989,38.0
300,1436799264006,38.0
301,1436799264024,40.0
302,1436799264045,40.0
303,1436799264065,42.0
304,1436799264087,42.0
305,1436799264157,45.0
306,1436799264158,45.0
307,1436799264159,47.0
308,1436799264166,47.0
309,1436799264185,49.0
310,1436799264208,49.0
311,1436799264224,51.0
312,1436799264244,52.0
313,1436799264265,52.0
314,1436799264286,52.0
315,1436799264306,52.0
316,1436799264324,52.0
317,1436799264345,52.0
318,1436799264366,53.0
319,1436799264387,53.0
320,1436799264405,53.0
321,1436799264427,53.0
322,1436799264447,53.0
323,1436799264466,53.0
324,1436799264487,53.0
325,1436799264507,54.0
326,1436799264527,54.0
327,1436799264545,53.0
328,1436799264565,53.0
329,1436799264587,53.0
330,1436799264605,53.0
331,1436799264626,53.0
332,1436799264645,53.0
333,1436799264674,53.0
334,1436799264689,53.0
335,1436799264709,53.0
336,1436799264725,53.0
337,1436799264747,52.0
338,1436799264764,52.0
339,1436799264787,52.0
340,1436799264805,52.0
341,1436799264827,52.0
342,1436799264892,51.0
343,1436799264893,51.0
344,1436799264894,51.0
345,1436799264904,51.0
346,1436799264928,51.0
347,1436799264946,51.0
348,1436799264968,51.0
349,1436799264987,51.0
350,1436799265004,51.0
351,1436799265029,51.0
352,1436799265044,51.0
353,1436799265065,51.0
354,1436799265085,51.0
355,1436799265106,51.0
356,1436799265128,51.0
357,1436799265146,51.0
358,1436799265169,51.0
359,1436799265185,52.0
360,1436799265206,52.0
361,1436799265228,52.0
362,1436799265246,52.0
363,1436799265268,51.0
364,1436799265286,51.0
365,1436799265306,51.0
366,1436799265328,51.0
367,1436799265346,51.0
368,1436799265366,51.0
369,1436799265390,51.0
370,1436799265425,50.0
371,1436799265426,50.0
372,1436799265446,49.0
373,1436799265466,49.0
374,1436799265486,47.0
375,1436799265506,47.0
376,1436799265526,46.0
377,1436799265546,46.0
378,1436799265617,45.0
379,1436799265635,45.0
380,1436799265636,44.0
381,1436799265637,43.0
382,1436799265659,43.0
383,1436799265673,42.0
384,1436799265708,42.0
385,1436799265709,42.0
386,1436799265725,42.0
387,1436799265754,42.0
388,1436799265771,42.0
389,1436799265786,42.0
390,1436799265815,42.0
391,1436799265827,41.0
392,1436799265851,41.0
393,1436799265867,41.0
394,1436799265890,41.0
395,1436799265907,41.0
396,1436799265952,41.0
397,1436799265953,41.0
398,1436799265966,42.0
399,1436799265989,42.0
400,1436799266006,42.0
401,1436799266026,42.0
402,1436799266052,42.0
403,1436799266066,42.0
404,1436799266093,43.0
405,1436799266106,43.0
406,1436799266128,43.0
407,1436799266146,44.0
408,1436799266166,44.0
409,1436799266186,44.0
410,1436799266206,44.0
411,1436799266228,44.0
412,1436799266252,44.0
413,1436799266266,45.0
414,1436799266287,45.0
415,1436799266312,45.0
416,1436799266367,45.0
417,1436799266368,46.0
418,1436799266369,46.0
419,1436799266389,47.0
420,1436799266407,47.0
421,1436799266427,48.0
422,1436799266446,49.0
423,1436799266466,49.0
424,1436799266488,51.0
425,1436799266507,51.0
426,1436799266528,52.0
427,1436799266547,52.0
428,1436799266568,53.0
429,1436799266590,53.0
430,1436799266607,53.0
431,1436799266628,53.0
432,1436799266649,54.0
433,1436799266667,54.0
434,1436799266688,56.0
435,1436799266707,58.0
436,1436799266728,58.0
437,1436799266749,60.0
438,1436799266767,60.0
439,1436799266787,61.0
440,1436799266809,61.0
441,1436799266827,62.0
442,1436799266849,62.0
443,1436799266874,64.0
444,1436799266919,64.0
445,1436799266920,65.0
446,1436799267011,65.0
447,1436799267012,66.0
448,1436799267013,66.0
449,1436799267014,67.0
450,1436799267015,68.0
451,1436799267119,68.0
452,1436799267120,68.0
453,1436799267121,68.0
454,1436799267122,68.0
455,1436799267123,68.0
456,1436799267177,68.0
457,1436799267178,68.0
458,1436799267179,68.0
459,1436799267195,68.0
460,1436799267234,68.0
461,1436799267235,68.0
462,1436799267246,69.0
463,1436799267266,69.0
464,1436799267287,69.0
465,1436799267309,70.0
466,1436799267326,70.0
467,1436799267348,71.0
468,1436799267368,71.0
469,1436799267390,71.0
470,1436799267410,71.0
471,1436799267430,71.0
472,1436799267450,71.0
473,1436799267468,72.0
474,1436799267486,72.0
475,1436799267507,72.0
476,1436799267530,72.0
477,1436799267547,72.0
478,1436799267569,72.0
479,1436799267590,72.0
480,1436799267608,72.0
481,1436799267630,72.0
482,1436799267651,72.0
483,1436799267671,72.0
484,1436799267690,73.0
485,1436799267711,73.0
486,1436799267731,75.0
487,1436799267748,75.0
488,1436799267769,77.0
489,1436799267832,77.0
490,1436799267842,79.0
491,1436799267843,82.0
492,1436799267851,82.0
493,1436799267869,84.0
494,1436799267891,84.0
495,1436799267907,85.0
496,1436799267927,85.0
497,1436799267949,87.0
498,1436799267969,87.0
499,1436799267989,89.0
500,1436799268013,89.0
501,1436799268029,90.0
502,1436799268050,90.0
503,1436799268070,90.0
504,1436799268090,91.0
505,1436799268110,91.0
506,1436799268130,91.0
507,1436799268149,91.0
508,1436799268170,90.0
509,1436799268190,90.0
510,1436799268210,90.0
511,1436799268230,90.0
512,1436799268248,90.0
513,1436799268270,90.0
514,1436799268287,90.0
515,1436799268307,90.0
516,1436799268328,90.0
517,1436799268350,88.0
518,1436799268371,88.0
519,1436799268394,83.0
520,1436799268408,83.0
521,1436799268428,78.0
522,1436799268448,78.0
523,1436799268468,73.0
524,1436799268488,73.0
525,1436799268512,70.0
526,1436799268573,70.0
527,1436799268574,66.0
528,1436799268575,66.0
529,1436799268592,62.0
530,1436799268609,62.0
531,1436799268632,60.0
532,1436799268648,59.0
533,1436799268668,59.0
534,1436799268691,59.0
535,1436799268709,59.0
536,1436799268729,59.0
537,1436799268749,59.0
538,1436799268773,60.0
539,1436799268791,60.0
540,1436799268811,61.0
541,1436799268831,61.0
542,1436799268864,60.0
543,1436799268881,60.0
544,1436799268888,60.0
545,1436799268909,60.0
546,1436799268928,60.0
547,1436799268949,60.0
548,1436799268969,60.0
549,1436799268992,59.0
550,1436799269013,59.0
551,1436799269031,58.0
552,1436799269051,58.0
553,1436799269072,57.0
554,1436799269092,57.0
555,1436799269112,57.0
556,1436799269131,57.0
557,1436799269153,57.0
558,1436799269176,57.0
559,1436799269192,57.0
560,1436799269212,56.0
561,1436799269230,56.0
562,1436799269285,54.0
563,1436799269286,54.0
564,1436799269304,54.0
565,1436799269309,54.0
566,1436799269330,54.0
567,1436799269351,54.0
568,1436799269369,54.0
569,1436799269389,54.0
570,1436799269409,54.0
571,1436799269431,54.0
572,1436799269455,55.0
573,1436799269471,56.0
574,1436799269493,56.0
575,1436799269512,56.0
576,1436799269532,56.0
577,1436799269552,57.0
578,1436799269572,57.0
579,1436799269592,57.0
580,1436799269610,57.0
581,1436799269632,58.0
582,1436799269652,58.0
583,1436799269672,60.0
584,1436799269690,60.0
585,1436799269713,59.0
586,1436799269733,56.0
587,1436799269753,56.0
588,1436799269773,56.0
589,1436799269789,56.0
590,1436799269813,57.0
591,1436799269832,57.0
592,1436799269853,57.0
593,1436799269872,57.0
594,1436799269891,58.0
595,1436799269911,58.0
596,1436799269931,57.0
597,1436799269950,57.0
598,1436799269971,56.0
599,1436799270041,56.0
600,1436799270042,56.0
601,1436799270043,56.0
602,1436799270049,56.0
603,1436799270072,56.0
604,1436799270095,56.0
605,1436799270110,57.0
606,1436799270131,57.0
607,1436799270153,59.0
608,1436799270171,59.0
609,1436799270191,61.0
610,1436799270210,61.0
611,1436799270230,63.0
612,1436799270252,63.0
613,1436799270273,64.0
614,1436799270293,65.0
615,1436799270313,65.0
616,1436799270333,68.0
617,1436799270353,68.0
618,1436799270373,72.0
619,1436799270393,72.0
620,1436799270413,72.0
621,1436799270431,72.0
622,1436799270453,68.0
623,1436799270473,68.0
624,1436799270493,67.0
625,1436799270510,67.0
626,1436799270530,66.0
627,1436799270551,67.0
628,1436799270573,67.0
629,1436799270593,66.0
630,1436799270611,66.0
631,1436799270633,65.0
632,1436799270652,65.0
633,1436799270671,62.0
634,1436799270699,62.0
635,1436799270771,59.0
636,1436799270772,59.0
637,1436799270773,60.0
638,1436799270774,60.0
639,1436799270791,59.0
640,1436799270812,59.0
641,1436799270830,60.0
642,1436799270851,60.0
643,1436799270872,60.0
644,1436799270891,62.0
645,1436799270913,62.0
646,1436799270930,64.0
647,1436799270954,64.0
648,1436799270974,65.0
649,1436799270994,65.0
650,1436799271014,66.0
651,1436799271032,66.0
652,1436799271054,67.0
653,1436799271074,67.0
654,1436799271094,68.0
655,1436799271114,69.0
656,1436799271131,69.0
657,1436799271154,65.0
658,1436799271170,65.0
659,1436799271194,64.0
660,1436799271214,64.0
661,1436799271235,64.0
662,1436799271254,64.0
663,1436799271274,64.0
664,1436799271294,64.0
665,1436799271314,63.0
666,1436799271334,63.0
667,1436799271354,62.0
668,1436799271374,61.0
669,1436799271395,61.0
670,1436799271412,58.0
671,1436799271434,58.0
672,1436799271536,58.0
673,1436799271537,58.0
674,1436799271538,57.0
675,1436799271539,57.0
676,1436799271540,58.0
677,1436799271585,58.0
678,1436799271586,60.0
679,1436799271592,60.0
680,1436799271611,63.0
681,1436799271631,63.0
682,1436799271658,67.0
683,1436799271671,71.0
684,1436799271694,71.0
685,1436799271719,72.0
686,1436799271732,72.0
687,1436799271751,73.0
688,1436799271774,73.0
689,1436799271794,72.0
690,1436799271814,72.0
691,1436799271835,73.0
692,1436799271853,73.0
693,1436799271875,75.0
694,1436799271895,75.0
695,1436799271915,74.0
696,1436799271934,76.0
697,1436799271955,76.0
698,1436799271975,77.0
699,1436799271992,77.0
700,1436799272013,78.0
701,1436799272034,78.0
702,1436799272053,77.0
703,1436799272075,77.0
704,1436799272094,73.0
705,1436799272115,73.0
706,1436799272135,66.0
707,1436799272155,66.0
708,1436799272173,64.0
709,1436799272193,64.0
710,1436799272220,63.0
711,1436799272280,65.0
712,1436799272292,65.0
713,1436799272293,67.0
714,1436799272294,67.0
715,1436799272313,69.0
716,1436799272334,69.0
717,1436799272352,70.0
718,1436799272374,70.0
719,1436799272393,71.0
720,1436799272412,71.0
721,1436799272434,71.0
722,1436799272454,71.0
723,1436799272473,71.0
724,1436799272493,70.0
725,1436799272515,70.0
726,1436799272535,73.0
727,1436799272555,73.0
728,1436799272574,72.0
729,1436799272595,72.0
730,1436799272614,70.0
731,1436799272635,70.0
732,1436799272655,71.0
733,1436799272673,71.0
734,1436799272692,71.0
735,1436799272715,71.0
736,1436799272735,71.0
737,1436799272755,71.0
738,1436799272775,71.0
739,1436799272796,70.0
740,1436799272815,70.0
741,1436799272835,67.0
742,1436799272855,67.0
743,1436799272877,67.0
744,1436799272896,67.0
745,1436799272916,67.0
746,1436799272935,67.0
747,1436799272959,69.0
748,1436799273018,69.0
749,1436799273019,70.0
750,1436799273020,70.0
751,1436799273043,71.0
752,1436799273052,73.0
753,1436799273078,73.0
754,1436799273094,74.0
755,1436799273114,74.0
756,1436799273135,74.0
757,1436799273153,74.0
758,1436799273174,74.0
759,1436799273193,74.0
760,1436799273215,74.0
761,1436799273234,74.0
762,1436799273256,77.0
763,1436799273276,77.0
764,1436799273293,78.0
765,1436799273316,75.0
766,1436799273336,75.0
767,1436799273352,75.0
768,1436799273373,75.0
769,1436799273393,76.0
770,1436799273413,76.0
771,1436799273443,76.0
772,1436799273471,76.0
773,1436799273475,75.0
774,1436799273496,75.0
775,1436799273513,73.0
776,1436799273533,73.0
777,1436799273553,69.0
778,1436799273587,67.0
779,1436799273598,67.0
780,1436799273616,66.0
781,1436799273633,66.0
782,1436799273656,67.0
783,1436799273673,67.0
784,1436799273693,68.0
785,1436799273738,68.0
786,1436799273739,68.0
787,1436799273756,68.0
788,1436799273773,69.0
789,1436799273793,69.0
790,1436799273813,69.0
791,1436799273833,69.0
792,1436799273853,70.0
793,1436799273873,70.0
794,1436799273893,70.0
795,1436799273915,70.0
796,1436799273935,70.0
797,1436799273953,71.0
798,1436799273975,71.0
799,1436799273995,72.0
800,1436799274013,72.0
801,1436799274034,69.0
802,1436799274054,69.0
803,1436799274075,70.0
804,1436799274096,70.0
805,1436799274114,71.0
806,1436799274135,71.0
807,1436799274153,71.0
808,1436799274173,70.0
809,1436799274194,70.0
810,1436799274214,68.0
811,1436799274235,68.0
812,1436799274270,65.0
813,1436799274273,65.0
814,1436799274294,62.0
815,1436799274313,62.0
816,1436799274334,61.0
817,1436799274355,61.0
818,1436799274377,61.0
819,1436799274408,63.0
820,1436799274414,63.0
821,1436799274434,63.0
822,1436799274454,63.0
823,1436799274477,64.0
824,1436799274493,64.0
825,1436799274517,65.0
826,1436799274535,65.0
827,1436799274554,67.0
828,1436799274578,67.0
829,1436799274596,68.0
830,1436799274615,68.0
831,1436799274633,69.0
832,1436799274656,69.0
833,1436799274678,72.0
834,1436799274696,76.0
835,1436799274718,76.0
836,1436799274734,74.0
837,1436799274756,74.0
838,1436799274775,73.0
839,1436799274795,73.0
840,1436799274817,74.0
841,1436799274835,74.0
842,1436799274857,74.0
843,1436799274875,74.0
844,1436799274905,74.0
845,1436799274914,74.0
846,1436799274940,71.0
847,1436799274954,67.0
848,1436799274975,67.0
849,1436799274994,61.0
850,1436799275014,61.0
851,1436799275036,59.0
852,1436799275055,59.0
853,1436799275103,58.0
854,1436799275104,58.0
855,1436799275123,59.0
856,1436799275134,59.0
857,1436799275156,60.0
858,1436799275175,60.0
859,1436799275196,62.0
860,1436799275216,63.0
861,1436799275235,63.0
862,1436799275256,64.0
863,1436799275276,64.0
864,1436799275298,66.0
865,1436799275316,66.0
866,1436799275336,67.0
867,1436799275355,67.0
868,1436799275376,69.0
869,1436799275398,69.0
870,1436799275418,73.0
871,1436799275436,73.0
872,1436799275459,71.0
873,1436799275475,71.0
