id,attr_time,attr_light
1,1436799258019,238.0
2,1436799258039,238.0
3,1436799258056,238.0
4,1436799258080,238.0
5,1436799258099,239.0
6,1436799258117,239.0
7,1436799258138,239.0
8,1436799258158,239.0
9,1436799258177,239.0
10,1436799258198,239.0
11,1436799258219,238.0
12,1436799258237,238.0
13,1436799258260,238.0
14,1436799258278,238.0
15,1436799258298,238.0
16,1436799258326,238.0
17,1436799258342,238.0
18,1436799258359,238.0
19,1436799258377,238.0
20,1436799258398,238.0
21,1436799258418,238.0
22,1436799258439,238.0
23,1436799258458,238.0
24,1436799258480,237.0
25,1436799258497,236.0
26,1436799258517,236.0
27,1436799258537,236.0
28,1436799258560,236.0
29,1436799258581,236.0
30,1436799258600,236.0
31,1436799258618,237.0
32,1436799258638,237.0
33,1436799258658,236.0
34,1436799258679,236.0
35,1436799258701,236.0
36,1436799258722,236.0
37,1436799258740,236.0
38,1436799258759,236.0
39,1436799258779,236.0
40,1436799258798,235.0
41,1436799258819,235.0
42,1436799258841,233.0
43,1436799258860,233.0
44,1436799258880,233.0
45,1436799258898,232.0
46,1436799258918,232.0
47,1436799258944,232.0
48,1436799259033,232.0
49,1436799259034,231.0
50,1436799259035,231.0
51,1436799259036,231.0
52,1436799259040,231.0
53,1436799259061,231.0
54,1436799259078,231.0
55,1436799259098,230.0
56,1436799259118,229.0
57,1436799259139,229.0
58,1436799259162,229.0
59,1436799259184,229.0
60,1436799259202,229.0
61,1436799259220,229.0
62,1436799259239,229.0
63,1436799259258,229.0
64,1436799259279,228.0
65,1436799259299,228.0
66,1436799259320,227.0
67,1436799259341,227.0
68,1436799259360,227.0
69,1436799259380,227.0
70,1436799259402,227.0
71,1436799259426,226.0
72,1436799259440,226.0
73,1436799259460,226.0
74,1436799259480,226.0
75,1436799259499,225.0
76,1436799259519,223.0
77,1436799259539,223.0
78,1436799259560,220.0
79,1436799259581,220.0
80,1436799259601,217.0
81,1436799259621,217.0
82,1436799259641,217.0
83,1436799259660,217.0
84,1436799259680,217.0
85,1436799259701,217.0
86,1436799259769,216.0
87,1436799259770,217.0
88,1436799259771,217.0
89,1436799259779,218.0
90,1436799259799,218.0
91,1436799259821,218.0
92,1436799259839,218.0
93,1436799259861,218.0
94,1436799259879,218.0
95,1436799259899,218.0
96,1436799259920,218.0
97,1436799259940,218.0
98,1436799259959,217.0
99,1436799259981,217.0
100,1436799259999,217.0
101,1436799260019,217.0
102,1436799260039,214.0
103,1436799260059,214.0
104,1436799260081,210.0
105,1436799260101,210.0
106,1436799260120,209.0
107,1436799260143,209.0
108,1436799260161,207.0
109,1436799260179,203.0
110,1436799260200,203.0
111,1436799260220,200.0
112,1436799260241,200.0
113,1436799260263,198.0
114,1436799260282,198.0
115,1436799260302,194.0
116,1436799260320,194.0
117,1436799260340,194.0
118,1436799260359,194.0
119,1436799260380,194.0
120,1436799260401,194.0
121,1436799260521,194.0
122,1436799260522,195.0
123,1436799260523,195.0
124,1436799260524,195.0
125,1436799260525,195.0
126,1436799260526,195.0
127,1436799260543,195.0
128,1436799260560,197.0
129,1436799260580,199.0
130,1436799260605,199.0
131,1436799260622,201.0
132,1436799260640,201.0
133,1436799260662,207.0
134,1436799260681,207.0
135,1436799260701,211.0
136,1436799260720,211.0
137,1436799260740,212.0
138,1436799260760,212.0
139,1436799260781,213.0
140,1436799260801,216.0
141,1436799260821,216.0
142,1436799260841,221.0
143,1436799260861,221.0
144,1436799260886,227.0
145,1436799260901,227.0
146,1436799260921,231.0
147,1436799260940,231.0
148,1436799260961,232.0
149,1436799260980,232.0
150,1436799261001,232.0
151,1436799261022,231.0
152,1436799261043,231.0
153,1436799261061,228.0
154,1436799261080,228.0
155,1436799261100,222.0
156,1436799261122,222.0
157,1436799261251,218.0
158,1436799261252,218.0
159,1436799261253,214.0
160,1436799261254,210.0
161,1436799261255,210.0
162,1436799261256,204.0
163,1436799261274,204.0
164,1436799261307,198.0
165,1436799261308,198.0
166,1436799261321,197.0
167,1436799261352,197.0
168,1436799261623,193.0
169,1436799261625,193.0
170,1436799261626,186.0
171,1436799261627,179.0
172,1436799261628,179.0
173,1436799261629,178.0
174,1436799261630,178.0
175,1436799261631,176.0
176,1436799261632,176.0
177,1436799261633,173.0
178,1436799261634,173.0
179,1436799261635,172.0
180,1436799261636,172.0
181,1436799261637,168.0
182,1436799261722,163.0
183,1436799261723,163.0
184,1436799261724,159.0
185,1436799261725,159.0
186,1436799261726,152.0
187,1436799261740,152.0
188,1436799261760,150.0
189,1436799261780,150.0
190,1436799261800,151.0
191,1436799261833,153.0
192,1436799261841,153.0
193,1436799261861,160.0
194,1436799261880,160.0
195,1436799261901,169.0
196,1436799261920,169.0
197,1436799261940,183.0
198,1436799261960,183.0
199,1436799261980,201.0
200,1436799262000,201.0
201,1436799262020,206.0
202,1436799262040,207.0
203,1436799262060,207.0
204,1436799262080,210.0
205,1436799262100,210.0
206,1436799262120,210.0
207,1436799262140,210.0
208,1436799262162,206.0
209,1436799262185,206.0
210,1436799262201,202.0
211,1436799262222,202.0
212,1436799262243,198.0
213,1436799262263,201.0
214,1436799262284,201.0
215,1436799262305,206.0
216,1436799262323,206.0
217,1436799262346,217.0
218,1436799262363,217.0
219,1436799262382,242.0
220,1436799263840,242.0
221,1436799263841,244.0
222,1436799263842,244.0
223,1436799263843,246.0
224,1436799263844,248.0
225,1436799263845,248.0
226,1436799263846,249.0
227,1436799263847,249.0
228,1436799263848,250.0
229,1436799263849,250.0
230,1436799263850,233.0
231,1436799263851,233.0
232,1436799263852,218.0
233,1436799263853,219.0
234,1436799263854,219.0
235,1436799263855,221.0
236,1436799263856,221.0
237,1436799263857,221.0
238,1436799263858,221.0
239,1436799263859,222.0
240,1436799263860,222.0
241,1436799263861,227.0
242,1436799263862,227.0
243,1436799263863,231.0
244,1436799263864,233.0
245,1436799263865,233.0
246,1436799263866,235.0
247,1436799263867,235.0
248,1436799263868,239.0
249,1436799263869,239.0
250,1436799263870,242.0
251,1436799263871,242.0
252,1436799263872,249.0
253,1436799263873,249.0
254,1436799263874,254.0
255,1436799263875,259.0
256,1436799263876,259.0
257,1436799263877,262.0
258,1436799263878,262.0
259,1436799263879,267.0
260,1436799263880,267.0
261,1436799263881,266.0
262,1436799263882,266.0
263,1436799263883,263.0
264,1436799263884,261.0
265,1436799263885,261.0
266,1436799263886,262.0
267,1436799263887,262.0
268,1436799263888,262.0
269,1436799263889,262.0
270,1436799263890,262.0
271,1436799263891,262.0
272,1436799263892,261.0
273,1436799263893,261.0
274,1436799263894,261.0
275,1436799263895,261.0
276,1436799263896,261.0
277,1436799263897,263.0
278,1436799263898,263.0
279,1436799263899,262.0
280,1436799263900,262.0
281,1436799263901,259.0
282,1436799263902,259.0
283,1436799263903,257.0
284,1436799263904,257.0
285,1436799263905,255.0
286,1436799263906,252.0
287,1436799263907,252.0
288,1436799263908,250.0
289,1436799263909,250.0
290,1436799263910,248.0
291,1436799263911,248.0
292,1436799263912,247.0
293,1436799263913,247.0
294,1436799263914,246.0
295,1436799263915,246.0
296,1436799263922,244.0
297,1436799263942,244.0
298,1436799263962,244.0
299,1436799263982,243.0
300,1436799264002,243.0
301,1436799264022,242.0
302,1436799264042,242.0
303,1436799264062,241.0
304,1436799264082,241.0
305,1436799264102,240.0
306,1436799264123,241.0
307,1436799264146,241.0
308,1436799264166,241.0
309,1436799264183,241.0
310,1436799264203,241.0
311,1436799264226,241.0
312,1436799264244,241.0
313,1436799264266,241.0
314,1436799264286,242.0
315,1436799264304,242.0
316,1436799264324,242.0
317,1436799264345,243.0
318,1436799264364,243.0
319,1436799264388,243.0
320,1436799264414,243.0
321,1436799264429,244.0
322,1436799264445,244.0
323,1436799264463,243.0
324,1436799264484,243.0
325,1436799264507,242.0
326,1436799264524,242.0
327,1436799264544,242.0
328,1436799264565,242.0
329,1436799264584,242.0
330,1436799264607,241.0
331,1436799264623,241.0
332,1436799264647,241.0
333,1436799264667,241.0
334,1436799264687,241.0
335,1436799264703,241.0
336,1436799264723,240.0
337,1436799264743,240.0
338,1436799264765,239.0
339,1436799264787,238.0
340,1436799264807,238.0
341,1436799264828,235.0
342,1436799264846,235.0
343,1436799264866,233.0
344,1436799264884,233.0
345,1436799264908,231.0
346,1436799264928,231.0
347,1436799264947,230.0
348,1436799264967,228.0
349,1436799264986,228.0
350,1436799265007,224.0
351,1436799265030,224.0
352,1436799265068,224.0
353,1436799265069,224.0
354,1436799265088,218.0
355,1436799265104,218.0
356,1436799265126,212.0
357,1436799265145,212.0
358,1436799265165,212.0
359,1436799265185,214.0
360,1436799265206,214.0
361,1436799265230,214.0
362,1436799265248,214.0
363,1436799265266,214.0
364,1436799265284,214.0
365,1436799265307,214.0
366,1436799265326,214.0
367,1436799265346,216.0
368,1436799265364,216.0
369,1436799265386,221.0
370,1436799265408,228.0
371,1436799265428,228.0
372,1436799265451,232.0
373,1436799265464,232.0
374,1436799265488,237.0
375,1436799265508,237.0
376,1436799265525,240.0
377,1436799265545,240.0
378,1436799265565,244.0
379,1436799265587,244.0
380,1436799265606,250.0
381,1436799265626,249.0
382,1436799265647,249.0
383,1436799265666,247.0
384,1436799265685,247.0
385,1436799265706,248.0
386,1436799265726,248.0
387,1436799265756,248.0
388,1436799265827,248.0
389,1436799265828,249.0
390,1436799265829,252.0
391,1436799265830,252.0
392,1436799265848,251.0
393,1436799265873,251.0
394,1436799265886,248.0
395,1436799265906,248.0
396,1436799265926,242.0
397,1436799265946,242.0
398,1436799265968,239.0
399,1436799265986,239.0
400,1436799266011,235.0
401,1436799266028,232.0
402,1436799266048,232.0
403,1436799266067,229.0
404,1436799266086,229.0
405,1436799266106,229.0
406,1436799266126,229.0
407,1436799266148,228.0
408,1436799266167,228.0
409,1436799266195,222.0
410,1436799266207,222.0
411,1436799266228,219.0
412,1436799266249,218.0
413,1436799266267,218.0
414,1436799266286,217.0
415,1436799266317,217.0
416,1436799266330,215.0
417,1436799266423,215.0
418,1436799266424,211.0
419,1436799266426,211.0
420,1436799266427,207.0
421,1436799266428,206.0
422,1436799266446,206.0
423,1436799266466,203.0
424,1436799266531,203.0
425,1436799266532,201.0
426,1436799266533,201.0
427,1436799266546,201.0
428,1436799266566,201.0
429,1436799266586,200.0
430,1436799266607,200.0
431,1436799266630,200.0
432,1436799266647,199.0
433,1436799266666,199.0
434,1436799266689,197.0
435,1436799266707,197.0
436,1436799266726,196.0
437,1436799266745,196.0
438,1436799266767,197.0
439,1436799266790,197.0
440,1436799266809,199.0
441,1436799266829,199.0
442,1436799266849,199.0
443,1436799266867,201.0
444,1436799266886,201.0
445,1436799266907,198.0
446,1436799266925,198.0
447,1436799266949,192.0
448,1436799266965,192.0
449,1436799266986,185.0
450,1436799267007,185.0
451,1436799267028,177.0
452,1436799267047,177.0
453,1436799267068,170.0
454,1436799267087,160.0
455,1436799267106,160.0
456,1436799267126,144.0
457,1436799267148,144.0
458,1436799267168,128.0
459,1436799267187,128.0
460,1436799267241,118.0
461,1436799267242,118.0
462,1436799267261,110.0
463,1436799267266,104.0
464,1436799267289,104.0
465,1436799267312,98.0
466,1436799267326,98.0
467,1436799267347,93.0
468,1436799267368,93.0
469,1436799267387,90.0
470,1436799267407,90.0
471,1436799267428,92.0
472,1436799267449,92.0
473,1436799267468,103.0
474,1436799267490,117.0
475,1436799267510,117.0
476,1436799267529,129.0
477,1436799267547,129.0
478,1436799267567,131.0
479,1436799267587,131.0
480,1436799267608,129.0
481,1436799267629,129.0
482,1436799267655,123.0
483,1436799267670,123.0
484,1436799267690,111.0
485,1436799267709,86.0
486,1436799267728,86.0
487,1436799267758,77.0
488,1436799267767,77.0
489,1436799267787,84.0
490,1436799267812,84.0
491,1436799267831,48.0
492,1436799267850,48.0
493,1436799267868,29.0
494,1436799267888,29.0
495,1436799267917,28.0
496,1436799267976,27.0
497,1436799267977,27.0
498,1436799267978,27.0
499,1436799267997,27.0
500,1436799268008,31.0
501,1436799268034,31.0
502,1436799268047,47.0
503,1436799268067,47.0
504,1436799268088,65.0
505,1436799268107,85.0
506,1436799268128,85.0
507,1436799268153,91.0
508,1436799268169,91.0
509,1436799268188,80.0
510,1436799268207,80.0
511,1436799268227,66.0
512,1436799268248,66.0
513,1436799268269,67.0
514,1436799268291,67.0
515,1436799268310,109.0
516,1436799268331,126.0
517,1436799268351,126.0
518,1436799268370,123.0
519,1436799268389,123.0
520,1436799268408,120.0
521,1436799268428,120.0
522,1436799268448,107.0
523,1436799268469,107.0
524,1436799268489,92.0
525,1436799268510,92.0
526,1436799268528,76.0
527,1436799268551,74.0
528,1436799268570,74.0
529,1436799268589,66.0
530,1436799268608,66.0
531,1436799268628,76.0
532,1436799268658,76.0
533,1436799268731,116.0
534,1436799268732,116.0
535,1436799268733,158.0
536,1436799268734,158.0
537,1436799268749,171.0
538,1436799268776,183.0
539,1436799268788,183.0
540,1436799268809,196.0
541,1436799268830,196.0
542,1436799268848,193.0
543,1436799268870,193.0
544,1436799268889,182.0
545,1436799268911,182.0
546,1436799268930,168.0
547,1436799268949,158.0
548,1436799268968,158.0
549,1436799268988,145.0
550,1436799269008,145.0
551,1436799269029,145.0
552,1436799269050,145.0
553,1436799269070,140.0
554,1436799269091,140.0
555,1436799269115,146.0
556,1436799269130,146.0
557,1436799269149,155.0
558,1436799269168,159.0
559,1436799269188,159.0
560,1436799269209,160.0
561,1436799269229,160.0
562,1436799269248,159.0
563,1436799269268,159.0
564,1436799269289,155.0
565,1436799269308,155.0
566,1436799269329,175.0
567,1436799269349,175.0
568,1436799269374,175.0
569,1436799269430,178.0
570,1436799269431,178.0
571,1436799269432,174.0
572,1436799269455,174.0
573,1436799269469,183.0
574,1436799269495,183.0
575,1436799269511,193.0
576,1436799269529,193.0
577,1436799271107,182.0
578,1436799271108,179.0
579,1436799271109,179.0
580,1436799271110,152.0
581,1436799271111,152.0
582,1436799271112,154.0
583,1436799271113,154.0
584,1436799271114,151.0
585,1436799271115,151.0
586,1436799271116,153.0
587,1436799271117,153.0
588,1436799271118,154.0
589,1436799271119,154.0
590,1436799271120,154.0
591,1436799271121,165.0
592,1436799271122,165.0
593,1436799271123,171.0
594,1436799271124,171.0
595,1436799271125,160.0
596,1436799271126,160.0
597,1436799271127,161.0
598,1436799271128,161.0
599,1436799271129,176.0
600,1436799271130,174.0
601,1436799271131,174.0
602,1436799271132,184.0
603,1436799271133,184.0
604,1436799271134,187.0
605,1436799271135,187.0
606,1436799271136,181.0
607,1436799271137,181.0
608,1436799271138,161.0
609,1436799271139,161.0
610,1436799271140,122.0
611,1436799271141,112.0
612,1436799271142,112.0
613,1436799271143,117.0
614,1436799271144,117.0
615,1436799271145,120.0
616,1436799271146,120.0
617,1436799271147,124.0
618,1436799271148,124.0
619,1436799271149,145.0
620,1436799271150,147.0
621,1436799271151,147.0
622,1436799271152,153.0
623,1436799271153,153.0
624,1436799271154,137.0
625,1436799271155,137.0
626,1436799271156,137.0
627,1436799271157,137.0
628,1436799271158,147.0
629,1436799271159,147.0
630,1436799271160,138.0
631,1436799271161,125.0
632,1436799271162,125.0
633,1436799271163,143.0
634,1436799271164,143.0
635,1436799271165,161.0
636,1436799271166,161.0
637,1436799271167,165.0
638,1436799271168,165.0
639,1436799271169,177.0
640,1436799271170,177.0
641,1436799271171,178.0
642,1436799271172,119.0
643,1436799271173,119.0
644,1436799271174,56.0
645,1436799271175,56.0
646,1436799271176,94.0
647,1436799271177,94.0
648,1436799271178,123.0
649,1436799271179,123.0
650,1436799271180,108.0
651,1436799271181,108.0
652,1436799271182,86.0
653,1436799271183,103.0
654,1436799271184,103.0
655,1436799271185,124.0
656,1436799271186,124.0
657,1436799271187,125.0
658,1436799271188,125.0
659,1436799271189,125.0
660,1436799271209,125.0
661,1436799271229,109.0
662,1436799271249,99.0
663,1436799271269,99.0
664,1436799271289,111.0
665,1436799271309,111.0
666,1436799271329,121.0
667,1436799271349,121.0
668,1436799271371,126.0
669,1436799271391,126.0
670,1436799271411,133.0
671,1436799271430,133.0
672,1436799271450,138.0
673,1436799271471,150.0
674,1436799271490,150.0
675,1436799271510,152.0
676,1436799271530,152.0
677,1436799271550,105.0
678,1436799271569,105.0
679,1436799271591,48.0
680,1436799271612,48.0
681,1436799271631,53.0
682,1436799271662,53.0
683,1436799271716,73.0
684,1436799271717,79.0
685,1436799271718,79.0
686,1436799271742,68.0
687,1436799271751,68.0
688,1436799271771,82.0
689,1436799271791,82.0
690,1436799271811,129.0
691,1436799271857,129.0
692,1436799271858,134.0
693,1436799271871,134.0
694,1436799271893,128.0
695,1436799271915,119.0
696,1436799271932,119.0
697,1436799271951,121.0
698,1436799271971,121.0
699,1436799271993,121.0
700,1436799272013,121.0
701,1436799272033,73.0
702,1436799272051,73.0
703,1436799272073,45.0
704,1436799272091,63.0
705,1436799272113,63.0
706,1436799272132,98.0
707,1436799272197,98.0
708,1436799272198,114.0
709,1436799272199,114.0
710,1436799272212,144.0
711,1436799272231,144.0
712,1436799272251,140.0
713,1436799272271,140.0
714,1436799272291,100.0
715,1436799272311,43.0
716,1436799272331,43.0
717,1436799272352,55.0
718,1436799272371,55.0
719,1436799272392,76.0
720,1436799272411,76.0
721,1436799272431,67.0
722,1436799272464,67.0
723,1436799272473,50.0
724,1436799272491,50.0
725,1436799272512,71.0
726,1436799272531,92.0
727,1436799272551,92.0
728,1436799272573,111.0
729,1436799272592,111.0
730,1436799272611,104.0
731,1436799272632,104.0
732,1436799272650,99.0
733,1436799272670,99.0
734,1436799272691,102.0
735,1436799272711,102.0
736,1436799272730,106.0
737,1436799272750,84.0
738,1436799272770,84.0
739,1436799272790,86.0
740,1436799272811,86.0
741,1436799272830,110.0
742,1436799272850,110.0
743,1436799272870,107.0
744,1436799272890,107.0
745,1436799272910,119.0
746,1436799272930,123.0
747,1436799272950,123.0
748,1436799272970,124.0
749,1436799272990,124.0
750,1436799273011,96.0
751,1436799273031,96.0
752,1436799273051,47.0
753,1436799273071,47.0
754,1436799273092,58.0
755,1436799273113,58.0
756,1436799273132,65.0
757,1436799273170,56.0
758,1436799273171,56.0
759,1436799273192,54.0
760,1436799273213,54.0
761,1436799273232,100.0
762,1436799273251,100.0
763,1436799273273,104.0
764,1436799273291,104.0
765,1436799273313,108.0
766,1436799273337,108.0
767,1436799273356,98.0
768,1436799273372,98.0
769,1436799273393,98.0
770,1436799273413,107.0
771,1436799273433,107.0
772,1436799273453,111.0
773,1436799273475,111.0
774,1436799273495,104.0
775,1436799273516,104.0
776,1436799273536,105.0
777,1436799273554,112.0
778,1436799273573,112.0
779,1436799273593,117.0
780,1436799273611,117.0
781,1436799273633,125.0
782,1436799273658,125.0
783,1436799273678,126.0
784,1436799273695,126.0
785,1436799273712,86.0
786,1436799273733,86.0
787,1436799273753,39.0
788,1436799273773,49.0
789,1436799273795,49.0
790,1436799273861,86.0
791,1436799273862,86.0
792,1436799273863,93.0
793,1436799273873,93.0
794,1436799273894,73.0
795,1436799273914,73.0
796,1436799273933,38.0
797,1436799273957,38.0
798,1436799273974,42.0
799,1436799273994,85.0
800,1436799274014,85.0
801,1436799274035,93.0
802,1436799274053,93.0
803,1436799274076,92.0
804,1436799274097,92.0
805,1436799274115,100.0
806,1436799274134,100.0
807,1436799274153,113.0
808,1436799274175,113.0
809,1436799274196,125.0
810,1436799275639,132.0
811,1436799275640,132.0
812,1436799275641,152.0
813,1436799275642,152.0
814,1436799275643,136.0
815,1436799275644,136.0
816,1436799275645,145.0
817,1436799275646,145.0
818,1436799275647,141.0
819,1436799275648,141.0
820,1436799275649,141.0
821,1436799275650,129.0
822,1436799275651,129.0
823,1436799275652,114.0
824,1436799275653,114.0
825,1436799275654,112.0
826,1436799275655,112.0
827,1436799275656,119.0
828,1436799275657,119.0
829,1436799275658,135.0
830,1436799275659,151.0
831,1436799275660,151.0
832,1436799275661,149.0
833,1436799275662,149.0
834,1436799275663,134.0
835,1436799275664,134.0
836,1436799275665,122.0
837,1436799275666,122.0
838,1436799275667,119.0
839,1436799275668,119.0
840,1436799275669,116.0
841,1436799275670,118.0
842,1436799275671,118.0
