id,attr_time,attr_db
1,1436607530063,4.27861248049147
2,1436607530787,5.19544088667359
3,1436607531533,6.30532290056669
4,1436607532321,3.79149354689456
5,1436607533042,1.41321999080248
6,1436607533768,6.83321956969788
7,1436607534449,23.8085890826981
8,1436607535162,35.1460219738148
9,1436607535869,41.4517820487471
10,1436607536605,44.0959061872277
11,1436607537328,39.4082111826381
12,1436607538021,44.5653817727334
13,1436607538672,55.7094116144398
14,1436607539331,59.2865987273604
15,1436607539928,57.7331138393048
16,1436607540608,45.1405156175956
17,1436607541295,44.5842868864865
18,1436607541940,55.1111739478321
19,1436607542590,55.3591331504415
20,1436607543221,42.962331729594
21,1436607543903,45.1512804718736
22,1436607544552,46.3796563306465
23,1436607545253,39.8747635193682
24,1436607545851,40.4276089772516
25,1436607546469,44.2647604473788
26,1436607547066,45.3352052806341
27,1436607547675,45.0180068276171
28,1436607548287,35.7930655346609
29,1436607548891,31.0523212925061
30,1436607549564,37.4968312537358
31,1436607550201,66.1376292502333
32,1436607550776,72.4095730975079
33,1436607551360,36.7733104220506
34,1436607551981,22.522917309508
35,1436607552569,29.9590288896007
36,1436607553147,19.1985393889635
37,1436607553741,17.6195563758052
38,1436607554340,19.0307758765771
39,1436607554945,25.4794142562803
40,1436607555643,30.7034944555649
41,1436607556395,34.163188963392
42,1436607557156,12.6728001225398
43,1436607557939,9.38803872803241
44,1436607558550,12.1034304132321
45,1436607559149,15.6182910960668
46,1436607559828,17.5864975192384
47,1436607560497,18.1586899042929
48,1436607561105,10.6692414789565
49,1436607561722,18.9480781251074
50,1436607562304,6.36006362217441
51,1436607562938,12.248294129761
52,1436607563674,9.86291733874264
53,1436607564421,4.43909537620542
54,1436607565144,13.1818687178662
55,1436607565864,21.225204021383
56,1436607566625,39.504331079971
57,1436607567375,9.70115301101378
58,1436607568118,13.115424550458
59,1436607568805,35.1422495476223
60,1436607569346,38.3496609050646
61,1436607569933,33.8265651979202
62,1436607570664,57.9094966327863
63,1436607571393,8.26483540214861
64,1436607572120,12.9868395157461
65,1436607572833,9.92108262346122
66,1436607573604,7.21211836133496
67,1436607574312,17.5190597293407
68,1436607575031,19.2058096174894
69,1436607575764,21.566482969488
70,1436607576514,10.1993319181994
71,1436607577265,14.2005832759539
72,1436607578039,30.2548994156067
73,1436607578701,23.1561093229967
74,1436607579464,13.5009601285831
75,1436607580185,17.8594345500588
76,1436607580901,34.7230287435701
77,1436607581616,40.7898855446027
78,1436607582340,35.2576927152835
79,1436607583172,44.3920332379568
80,1436607583907,53.4617181324421
81,1436607584626,54.782553099821
82,1436607585362,49.1960908007039
83,1436607586075,27.5424238623751
84,1436607586820,29.6682507668474
85,1436607587576,20.8630493405392
86,1436607588292,26.7767685375165
87,1436607589019,29.7101135420098
88,1436607589753,29.8338921589852
89,1436607590474,17.3007723537762
90,1436607591200,35.0800217012165
91,1436607591921,19.8101298398866
92,1436607592652,6.18209889058343
93,1436607593386,22.1573378971675
94,1436607594106,10.3514585040066
95,1436607594752,4.6741209882831
96,1436607595482,20.338962990873
97,1436607596210,5.45004342715487
98,1436607596920,34.1828978796021
99,1436607597652,2.73764394797448
100,1436607598353,7.94261519830342
101,1436607599043,44.6547955067673
102,1436607599767,5.42403012228923
103,1436607600528,6.63474345020916
104,1436607601256,30.9071053707065
105,1436607601986,33.5714885438087
106,1436607602755,9.75601352099142
107,1436607603466,13.7462482998615
108,1436607604169,40.4544552714226
109,1436607604909,44.6659791456558
110,1436607605642,28.5906729954008
111,1436607606379,35.4800999661838
112,1436607607105,37.6969577618171
113,1436607607856,26.2358229562911
114,1436607608613,30.6111751869093
115,1436607609347,35.0350911719952
116,1436607610088,24.569665343314
117,1436607610827,29.5155659974093
118,1436607611565,27.6429652561462
119,1436607612304,35.7936742982245
120,1436607613041,7.93304923958536
121,1436607613760,8.36939344699362
122,1436607614508,36.0843367400555
123,1436607615180,17.434697640021
124,1436607615918,16.9211278558737
125,1436607616652,25.0469253346607
126,1436607617365,24.833819217458
127,1436607618115,27.2308879349263
128,1436607618780,29.7493407788614
129,1436607619451,20.2118504755762
130,1436607620164,13.9911667193995
131,1436607620890,18.5593443108249
132,1436607621630,7.6072378224508
133,1436607622374,15.5709607117903
134,1436607623108,8.1269088100594
135,1436607623864,10.5535196876858
136,1436607624569,12.0808370906684
137,1436607625306,13.0893561672632
138,1436607626032,20.9403433484941
139,1436607626755,20.6022415868452
140,1436607627521,15.4659057146524
141,1436607628333,13.5664160387863
142,1436607629055,12.8842023433635
143,1436607629776,18.1075820352378
144,1436607630516,31.8004150284669
145,1436607631246,25.1372545924323
146,1436607631968,28.3413243775825
147,1436607632755,19.6422541763681
148,1436607633461,15.8981736702698
149,1436607634198,28.4934888699816
150,1436607634924,26.2630709657986
151,1436607635585,29.9396201877984
152,1436607636303,35.8879863018336
153,1436607637051,42.1206768793654
154,1436607637775,43.6819764136582
155,1436607638494,46.7261895809436
156,1436607639093,42.7236371404624
157,1436607639739,35.1214846491805
158,1436607640508,30.767495558641
159,1436607641228,25.4477661739399
160,1436607641969,27.7773876115202
161,1436607642721,28.4865234745316
162,1436607643518,22.5684568092459
163,1436607644262,16.5680292258382
164,1436607644999,25.5826036516266
165,1436607645718,6.32425262751537
166,1436607646467,8.39831178618074
167,1436607647195,21.8241930882848
168,1436607647920,3.63838929545874
169,1436607648643,6.46705367998005
170,1436607649373,1.45459883432437
171,1436607650123,5.13883118288636
172,1436607650864,11.6250463754158
173,1436607651600,7.92896752445477
174,1436607652326,54.1560663858283
175,1436607653037,44.6866308815824
176,1436607653759,39.2134899420133
177,1436607654505,50.4326512033119
178,1436607655183,43.1669506150796
179,1436607655845,41.3156683821182
180,1436607656567,34.2322984125696
181,1436607658218,18.5973159415524
182,1436607658912,41.7928510818893
183,1436607659631,39.1763687175418
184,1436607660315,39.839046916892
185,1436607661020,48.7761852576913
186,1436607661757,44.1946731810681
187,1436607662509,60.44041685096
188,1436607664231,38.7125205931486
189,1436607664981,38.7414321870052
190,1436607665710,9.97676457543606
191,1436607666462,38.9989269740053
192,1436607667183,36.5882286323518
193,1436607667895,34.8551138662772
194,1436607668623,40.9892144774857
195,1436607669433,49.1516261869188
196,1436607671409,29.7868349948801
197,1436607672082,27.8276961503919
198,1436607672798,2.10335568443034
199,1436607673546,32.6252130591046
200,1436607674261,18.3703405548853
201,1436607676211,3.69446705877575
202,1436607676938,4.87932538088449
203,1436607677655,2.3296289915859
204,1436607678471,7.82066092950234
205,1436607679190,18.0101096185586
206,1436607679869,10.2336740614321
207,1436607680590,39.8466172912719
208,1436607681323,26.3146318765278
209,1436607682048,25.0414871633924
210,1436607682766,26.2827651777378
211,1436607683669,36.8763821862167
212,1436607684418,7.56386584289254
213,1436607685112,30.6451616868575
214,1436607685758,19.1489216565479
215,1436607686369,4.55263803403923
216,1436607686951,5.71247697359297
217,1436607687501,24.4642424045338
218,1436607688094,10.4746066916676
219,1436607688770,9.6649301133304
220,1436607689561,33.2547708985621
221,1436607690305,20.2463152624494
222,1436607690889,34.7274502161633
223,1436607691450,20.4889325781595
224,1436607692001,4.24202485420145
225,1436607692553,15.2527050552926
226,1436607693487,23.5423602320734
227,1436607694208,19.4886032039102
228,1436607694956,5.71247697359297
229,1436607695532,39.2189170455974
230,1436607696183,10.8674597780946
231,1436607696894,18.1768124210521
232,1436607697456,32.0038397573621
233,1436607698001,31.9971018976303
234,1436607698559,33.2790530334046
235,1436607699123,26.1383747686754
236,1436607699785,43.3565298128001
237,1436607700544,44.2258679568641
238,1436607701266,48.1786120723607
239,1436607701944,52.1150463256601
240,1436607702501,40.6608680698951
241,1436607703038,38.7875466406482
242,1436607703594,56.5647052396291
243,1436607704963,50.7139580149235
244,1436607705696,23.8812184320175
245,1436607706445,61.1955592116651
246,1436607707166,42.2311743122765
247,1436607707879,35.6872349069383
248,1436607708696,13.3684196075769
249,1436607709268,33.9299144108476
250,1436607709831,53.9785351984085
251,1436607710464,41.6947392301097
252,1436607711183,37.983331969566
253,1436607711926,23.1417488653048
254,1436607712693,31.6443999840288
255,1436607713370,40.3549280037102
256,1436607713943,44.2554807374682
257,1436607714488,42.2441597732595
258,1436607715054,31.8864426318324
259,1436607715637,46.0680388315449
260,1436607717310,47.6299096819068
261,1436607718060,35.9519461515065
262,1436607718771,42.1725961494687
263,1436607719491,42.6969105716832
264,1436607720115,45.639162253743
265,1436607720895,39.8480445113615
266,1436607721473,49.9596072125403
267,1436607722134,44.1387591107435
268,1436607722872,15.6182992339094
269,1436607723693,38.5466333505571
270,1436607724446,36.6636545091824
271,1436607725193,39.3155184958917
272,1436607725911,45.4251160296023
273,1436607726635,62.4260691259003
274,1436607727338,47.341133118782
275,1436607728087,32.4845294417632
276,1436607728908,48.8051769771746
277,1436607729651,33.1308375816244
278,1436607730378,63.0647802285529
279,1436607731096,57.5746569660985
280,1436607731820,43.3701680584142
281,1436607732583,38.3099646475011
282,1436607733316,47.1871808243824
283,1436607734033,40.0290362382624
284,1436607734750,60.0412894385108
285,1436607735499,35.1045654167791
286,1436607736170,18.6583314378533
287,1436607736885,33.2111282370815
288,1436607737625,24.1263146812442
289,1436607738368,30.9341045936519
290,1436607739084,30.6780609034344
291,1436607739753,50.0637946728318
292,1436607740429,41.8391968492718
293,1436607741144,52.643991294424
294,1436607741872,42.5028201408414
295,1436607742605,51.205467350881
296,1436607743344,48.0177731853541
297,1436607744077,54.5867108877129
298,1436607744814,67.1216644204206
299,1436607745568,61.535863492265
300,1436607746297,43.3278510421302
301,1436607747405,38.0823792220776
302,1436607748037,54.5320132045975
303,1436607748703,48.295435969142
304,1436607749409,47.5348578527191
305,1436607750136,25.001471270969
306,1436607750975,44.6525342404518
307,1436607751716,42.1868204755119
308,1436607752454,30.8159853649823
309,1436607753270,32.9678724472156
310,1436607753981,44.0908465852073
311,1436607754662,29.219587019201
312,1436607755302,44.5348433341003
313,1436607755956,39.7188553106006
314,1436607756647,41.4654717795989
315,1436607757289,41.3010371695159
316,1436607757994,42.3742561461182
317,1436607758710,28.4068964961944
318,1436607759495,31.0032265287493
319,1436607760211,41.6708434264612
320,1436607760932,32.6783796031301
321,1436607761662,33.7364428745781
322,1436607762440,35.2082520869283
323,1436607763166,55.9922085467645
324,1436607763892,21.8718055182805
325,1436607764623,38.173594593349
326,1436607765360,18.2674600010909
327,1436607766089,18.4842397253264
328,1436607766827,20.168817469638
329,1436607767608,27.2536735110284
330,1436607768324,46.353126437153
331,1436607769036,40.7122106021533
332,1436607769756,39.8352404993415
333,1436607770521,34.3287896271242
334,1436607771237,39.9975883298325
335,1436607771953,47.7808985653502
336,1436607772690,62.7676413198804
337,1436607773420,39.5314331710457
338,1436607774145,31.7212019615545
339,1436607774877,39.3712758369108
340,1436607775603,51.7770355841472
341,1436607776323,38.9017521316104
342,1436607777035,25.1175269628479
343,1436607777744,10.5081422918666
344,1436607778496,15.3396431268513
345,1436607779227,7.45818426686847
346,1436607779923,4.49713695294379
347,1436607780642,5.66163259638171
348,1436607781369,4.52373321655562
349,1436607782067,3.91891096510929
350,1436607782825,30.9564696129945
351,1436607783583,44.6259774791773
352,1436607784283,48.346147666914
353,1436607785047,40.4707928292809
354,1436607785817,40.5339711315824
355,1436607786495,54.4787426375786
356,1436607787227,48.8108023956269
357,1436607787989,12.4084861469753
358,1436607788723,25.7011990369667
359,1436607789454,38.3431884093395
360,1436607790149,2.58983183776809
361,1436607790891,41.1136851386311
362,1436607791621,39.144573004474
363,1436607792363,3.04169880618862
364,1436607793142,16.6410979723587
365,1436607793876,37.3562703012467
366,1436607794623,29.6727052566695
367,1436607795276,40.7938285805056
368,1436607795902,37.5163071487088
369,1436607796608,45.4614422882558
370,1436607797288,54.7717396200947
371,1436607798098,13.2028942129479
372,1436607798830,8.09396813016127
373,1436607799569,8.24797856655892
374,1436607800247,24.3259061386922
375,1436607800968,42.8002282736746
376,1436607801683,48.1908420898194
377,1436607802418,42.4058041246226
378,1436607803196,45.2177146491901
379,1436607803914,38.9411214411779
380,1436607804645,11.1309730919179
381,1436607805378,42.0542313929387
382,1436607806095,54.2302282180824
383,1436607806853,45.1383327462034
384,1436607807601,36.7695079451421
385,1436607808324,36.1948625721994
386,1436607809044,41.1538139095542
387,1436607809758,52.6560222215466
388,1436607810490,35.1107972744713
389,1436607811178,39.0926985708157
390,1436607811906,44.418430738489
391,1436607812679,42.70694947242
392,1436607813419,44.4319865600887
393,1436607814130,44.7134598078095
394,1436607814875,41.5671232794462
395,1436607815614,42.6886452576506
396,1436607816276,43.3852233894367
397,1436607816922,35.7601685936687
398,1436607817636,35.4949899790739
399,1436607818367,43.5407082264281
400,1436607819096,44.9494296006767
401,1436607819836,33.1932533866637
402,1436607820519,36.5152146335876
403,1436607821251,38.4512603410405
404,1436607821968,15.5051341161707
405,1436607822729,40.9432151873285
406,1436607823492,39.7816115566184
407,1436607824232,33.3972523423599
408,1436607824946,8.15072261315521
409,1436607825635,8.24783577581366
410,1436607826359,7.05141276620523
411,1436607827088,7.07354243330462
412,1436607827829,44.840947501374
413,1436607828585,11.5333924687406
414,1436607829305,9.96103048540879
415,1436607830024,18.7887290724595
416,1436607830758,26.1867624556018
417,1436607831501,12.7428563024699
418,1436607832219,12.9228481863508
419,1436607832958,13.3474868132289
420,1436607833679,22.4848213671718
421,1436607834402,37.2991469424402
422,1436607835124,58.5763928128784
423,1436607835872,57.7701643322643
424,1436607836592,57.232616120805
425,1436607837329,45.5106821593576
426,1436607838063,27.3650168519085
427,1436607838774,39.8189568673226
428,1436607839516,59.2723786785093
429,1436607840190,17.457276222144
430,1436607840836,38.0282975366083
431,1436607841525,48.4380480772472
432,1436607842262,40.0902162576348
433,1436607842992,41.970878091785
434,1436607843728,47.0594586893584
435,1436607844472,41.1516271576339
436,1436607845198,56.0779951632997
437,1436607845938,36.3751865293241
438,1436607846667,36.2349529754627
439,1436607847395,47.6240581797801
440,1436607848117,56.0586330832524
441,1436607848873,43.6829522661327
442,1436607849606,39.0123494540845
443,1436607850343,41.0962737513051
444,1436607851065,41.6569072701009
445,1436607851760,24.3607082890334
446,1436607852528,41.8453651507126
447,1436607853268,35.129268309566
448,1436607853996,57.9891724301163
449,1436607854720,27.1161869721114
450,1436607855469,10.146349308399
451,1436607856227,21.5542722559481
452,1436607856888,34.4712894622662
453,1436607857616,38.0511022599899
454,1436607858393,47.7894010941906
455,1436607859133,60.329216136552
456,1436607859863,57.2063484088841
457,1436607860603,42.3756469697614
458,1436607862625,20.7799203912706
459,1436607863333,48.4159988072945
460,1436607864062,53.7565991418574
461,1436607864794,37.730615444877
462,1436607865535,35.0305835754898
463,1436607866253,38.1507620716221
464,1436607866964,53.1534803902614
465,1436607867738,44.0734761487072
466,1436607868541,14.5748380444026
467,1436607869267,46.3730659498908
468,1436607869996,17.9573683042047
469,1436607870697,45.9951034848856
470,1436607872558,60.6286781617806
471,1436607873239,36.9301762019547
472,1436607873931,32.6620808460815
473,1436607874658,19.243495063729
474,1436607875401,11.7330768868726
475,1436607876145,8.89386560794951
476,1436607876867,42.99889827329
477,1436607877597,45.7481528274836
478,1436607878317,55.066930587575
479,1436607879036,57.0686972954755
480,1436607879761,46.805209478496
481,1436607880519,58.294933703801
482,1436607881248,57.5055164749886
483,1436607881950,30.0987504456762
484,1436607882609,46.4712735541865
485,1436607883345,12.1769008909794
486,1436607884066,57.2595392549577
487,1436607884780,41.2033296344783
488,1436607885553,35.4273368794464
489,1436607886239,36.4523157061469
490,1436607887644,16.408143293863
491,1436607888330,24.3955743506492
492,1436607889051,40.76488656151
493,1436607889776,24.1099581337972
494,1436607890521,34.3950619557341
495,1436607891262,47.6079738077581
496,1436607891998,40.1876684223298
497,1436607892714,45.736582676273
498,1436607893466,26.956703029109
499,1436607894175,50.9681890828986
500,1436607894831,45.4838023025771
501,1436607896150,43.5190576134628
502,1436607896830,42.7342963617052
503,1436607897575,45.5430864449896
504,1436607898301,36.3072339132472
505,1436607898997,31.0559115416532
506,1436607899669,45.4457747414246
507,1436607900342,43.4890097718301
508,1436607900964,38.6677156675815
509,1436607901545,45.2797313762913
510,1436607902162,32.72658572305
511,1436607902724,33.7634618585231
512,1436607903304,27.1748287773446
513,1436607903937,26.3155182186288
514,1436607904516,29.2898966452025
515,1436607905066,45.5360471717363
516,1436607905609,44.3603291802957
517,1436607906194,19.8913313152547
518,1436607906909,23.4691655030275
519,1436607907645,32.3907381713824
520,1436607908323,34.2667034184218
521,1436607909420,40.4528704083383
522,1436607910018,34.1254996984049
523,1436607910672,41.1764133637289
524,1436607911376,45.5189977742742
525,1436607912073,42.4082215738514
526,1436607912816,40.3880761769002
527,1436607913571,38.9935546650715
528,1436607914330,41.3596750457073
529,1436607915023,35.9722871987857
530,1436607915682,56.7267330640955
531,1436607916374,57.0690987654604
532,1436607917041,37.5621381128693
533,1436607917704,56.804274557297
534,1436607918422,49.0842876434556
535,1436607919135,58.009018619247
536,1436607919875,29.938560085908
537,1436607920615,34.9146361890664
538,1436607921350,58.2050299099019
539,1436607922074,70.620580390911
540,1436607922796,60.3824599050984
541,1436607923528,30.2432476503887
542,1436607924237,46.4666140402506
543,1436607924971,34.0395211502846
544,1436607925709,34.2923141834338
545,1436607926412,33.2819920356681
546,1436607927121,53.0339534904075
547,1436607927866,33.5559732057461
548,1436607928596,52.775561356109
549,1436607929291,58.1478249514024
550,1436607929970,14.0513591060368
551,1436607930582,47.7529163508375
552,1436607931264,27.7653001984577
553,1436607931981,58.8565955573298
554,1436607932701,56.0219496054111
555,1436607933449,52.4352291855666
556,1436607934165,31.8977198867396
557,1436607934901,48.9334905911476
558,1436607935601,38.3152458103417
559,1436607936322,55.3220541509836
560,1436607937028,51.2485389038831
561,1436607937636,49.1679588420531
562,1436607938275,36.2758979980043
563,1436607939011,38.8035518850062
564,1436607939742,45.5390150186273
565,1436607940445,62.8056076068602
566,1436607941173,55.2317925313961
567,1436607941882,46.9566315517771
568,1436607942619,38.3808088092153
569,1436607943354,11.7458784951414
570,1436607944074,11.7294018753356
571,1436607944791,48.1411724311727
572,1436607945588,19.3008328128385
573,1436607946295,61.1323202577637
574,1436607947007,34.8945773688561
575,1436607947752,55.1883479505507
