id,attr_time,attr_db
1,1436607530034,2.45793102363898
2,1436607530783,3.32027891152831
3,1436607531521,2.2211821917088
4,1436607532242,3.11979981725937
5,1436607532955,2.19065179247934
6,1436607533622,2.17268717462134
7,1436607534333,11.045358791228
8,1436607535086,42.9067272579065
9,1436607535826,43.7506652090077
10,1436607536538,43.2641240141359
11,1436607537253,49.5350265032606
12,1436607537939,51.947044342079
13,1436607539371,71.8575578051444
14,1436607540096,49.7522912235345
15,1436607540837,71.0364213429086
16,1436607541566,57.801429349463
17,1436607542272,52.5333918672335
18,1436607543008,62.5928123686753
19,1436607543734,54.5727839286351
20,1436607544416,49.7854028323114
21,1436607545061,60.3922225776456
22,1436607545740,45.9960984290242
23,1436607546470,41.2591137674326
24,1436607547181,68.6537654750955
25,1436607547896,54.442087252694
26,1436607548608,43.9069121154903
27,1436607549278,41.8490843088331
28,1436607549982,21.5967119456284
29,1436607550696,63.5287182581252
30,1436607551368,40.3080111003381
31,1436607552121,8.81257419716252
32,1436607552841,13.2525990103209
33,1436607554592,9.80024989606814
34,1436607555258,18.9709679523814
35,1436607555982,26.7316568776532
36,1436607556726,20.0229186213057
37,1436607557479,6.91674511302586
38,1436607558186,2.6144377738781
39,1436607558901,14.8585982704362
40,1436607559641,22.6969419702213
41,1436607560362,14.8168043621017
42,1436607561094,2.00995812176064
43,1436607561782,3.59416698769558
44,1436607563100,0.90583386738558
45,1436607563773,3.66856478419817
46,1436607564485,3.34315157685367
47,1436607565193,11.6901127944673
48,1436607565903,16.1961748752454
49,1436607566648,33.2111339936998
50,1436607567356,2.59547294180665
51,1436607568110,5.78833675393575
52,1436607568844,30.4716427950361
53,1436607569547,15.9114980160729
54,1436607570271,34.3915328514299
55,1436607570982,11.3390101905503
56,1436607571736,4.91544254452951
57,1436607572456,15.227163682961
58,1436607573160,5.03531162837362
59,1436607573885,4.10581254407072
60,1436607574616,14.3236715255289
61,1436607575344,17.1967434473112
62,1436607576090,17.6580773486964
63,1436607576813,6.66744352538109
64,1436607577542,16.5439565377385
65,1436607578300,23.4627568764097
66,1436607579045,18.0022506186806
67,1436607579784,18.3326233879381
68,1436607580496,22.1503459677728
69,1436607581198,31.4491734427714
70,1436607581915,40.1175358079199
71,1436607582605,37.0183880466405
72,1436607583342,42.7268555404359
73,1436607584083,55.6164787593118
74,1436607584847,56.008607766449
75,1436607585514,39.6403899534646
76,1436607586233,25.5237770735163
77,1436607586950,34.0303579522826
78,1436607587696,24.8849191511071
79,1436607588430,15.1126737966262
80,1436607589163,15.4719520834393
81,1436607589829,14.8869740902709
82,1436607590523,5.8366899738917
83,1436607591282,18.4181558818505
84,1436607592006,6.59281355328045
85,1436607592830,2.14622259260018
86,1436607593550,6.75681265197993
87,1436607594275,4.06045886747773
88,1436607595018,2.84763002477797
89,1436607595777,19.9709406635747
90,1436607596501,22.5405017532971
91,1436607597248,1.43488057469135
92,1436607597980,2.37188408246026
93,1436607598729,1.30499569258596
94,1436607599467,1.14289040328558
95,1436607600178,3.18498853052388
96,1436607600928,2.90160077481545
97,1436607601673,42.8323819991711
98,1436607602423,17.2896879220656
99,1436607603158,24.3383755878539
100,1436607603888,17.9852860457667
101,1436607604589,23.0224242368058
102,1436607605346,7.70203174294243
103,1436607605971,15.1422708618877
104,1436607606625,22.3205663744464
105,1436607607299,21.3217619092871
106,1436607608005,8.28303632622785
107,1436607608770,11.9304240045521
108,1436607609491,15.4046310121614
109,1436607610148,4.93199481555884
110,1436607610888,14.1185321771287
111,1436607611623,13.6003046809514
112,1436607612340,14.0868850940857
113,1436607613091,2.8648244358028
114,1436607613827,4.05765583731607
115,1436607614563,21.0465745218647
116,1436607615302,10.7000065890179
117,1436607616025,15.3866938743989
118,1436607616790,15.9295615066715
119,1436607617505,16.0613659961254
120,1436607618233,27.1247602761918
121,1436607618973,23.686550515034
122,1436607619698,11.2720384713171
123,1436607620410,11.3166940778822
124,1436607621144,6.93749782670761
125,1436607621885,4.86495957023237
126,1436607622613,12.9207685102235
127,1436607623356,2.09775369156407
128,1436607624098,5.28802282113822
129,1436607624819,7.72074684446135
130,1436607625545,6.74714734352185
131,1436607626288,10.9920525141177
132,1436607626997,8.75761160840493
133,1436607627761,5.57394310176164
134,1436607628415,10.9002234709454
135,1436607629082,7.90761648092963
136,1436607629766,12.2187808111199
137,1436607630436,20.1589610754749
138,1436607631154,14.8387319482223
139,1436607631893,20.8741371970163
140,1436607632613,24.6689686519798
141,1436607633341,15.5994859025726
142,1436607634073,25.0275252463556
143,1436607634816,19.510366044655
144,1436607635546,28.1719821538921
145,1436607636277,34.5602674478102
146,1436607637006,40.1302225919324
147,1436607637776,36.6536030134053
148,1436607638485,41.3273021698886
149,1436607639222,34.0555144201675
150,1436607639958,35.099396053924
151,1436607640701,24.0300288398531
152,1436607641414,23.1224264060543
153,1436607642149,24.4712994273019
154,1436607642872,17.5655961937105
155,1436607643651,11.4316254676972
156,1436607644375,6.96203425443095
157,1436607645157,20.4432026064168
158,1436607645922,6.76386640245273
159,1436607646752,7.56886291171101
160,1436607647470,12.8304643537961
161,1436607648195,3.14279662613398
162,1436607649915,3.02849501904289
163,1436607650520,0.561190935935153
164,1436607651179,4.99474224290535
165,1436607651909,16.1953031719226
166,1436607652625,17.9439326586166
167,1436607653361,39.5284493259828
168,1436607654111,45.2122882614971
169,1436607654854,33.1061674304682
170,1436607655564,1.27550198126584
171,1436607656298,34.7124751912757
172,1436607657017,37.2387991414787
173,1436607657776,38.522450379764
174,1436607658496,19.2057472708125
175,1436607659231,39.9069039332583
176,1436607659980,33.3642414115091
177,1436607660739,5.77429851313581
178,1436607661467,15.1735576858802
179,1436607662178,28.3667666426002
180,1436607662900,1.73410119419063
181,1436607663628,13.5922915307292
182,1436607664333,35.2970183249581
183,1436607665083,37.5548810744777
184,1436607665805,4.36362011806536
185,1436607666427,34.6426127052834
186,1436607667156,25.5567586543899
187,1436607667863,31.2454954754438
188,1436607668595,35.1784569827949
189,1436607669307,37.2124737349076
190,1436607669986,27.6925482343563
191,1436607670654,39.4033418768227
192,1436607671376,19.2857876825045
193,1436607672130,17.8971149160265
194,1436607672840,3.30660034234224
195,1436607673581,31.2150366723286
196,1436607674293,14.9886556294983
197,1436607675001,35.3277868382043
198,1436607675826,42.7015342393122
199,1436607676529,23.247088727225
200,1436607677257,3.36195221111608
201,1436607677977,29.1649698711971
202,1436607678739,4.95670575580497
203,1436607679444,33.4218121904665
204,1436607680169,1.99096737434733
205,1436607680885,26.7317098085987
206,1436607681623,17.5060644272489
207,1436607682353,10.0885710473567
208,1436607683085,2.28455421664694
209,1436607683811,19.6210437247366
210,1436607684527,2.26520924286421
211,1436607685254,28.0451323408911
212,1436607685966,2.54003997737552
213,1436607686643,12.2134832497452
214,1436607687373,30.0379885117506
215,1436607688109,9.73011458366496
216,1436607688840,4.91272647380621
217,1436607689555,26.5414427553248
218,1436607690275,34.7222802780828
219,1436607690995,29.9962365553037
220,1436607692460,3.21370224142697
221,1436607693190,19.6959286298363
222,1436607693902,20.0510000268748
223,1436607694615,3.41808554506069
224,1436607695297,24.2315851742797
225,1436607695996,30.6954144496659
226,1436607696742,5.29737254178058
227,1436607697473,24.3126382927218
228,1436607698174,31.619057677906
229,1436607698913,31.0882863315447
230,1436607699605,32.7265243640411
231,1436607700338,41.4946213572928
232,1436607701073,40.2432905825608
233,1436607701803,37.4273374468034
234,1436607702547,43.3532242641042
235,1436607703277,31.8025649429942
236,1436607703995,33.0591345213554
237,1436607704775,3.12178720764399
238,1436607705494,27.5918875170224
239,1436607706277,7.76171277953758
240,1436607706931,20.5550048926838
241,1436607707650,31.1075608814081
242,1436607708360,26.942501232138
243,1436607709088,36.5988111728661
244,1436607709836,34.127006553452
245,1436607710547,42.5091524110766
246,1436607711201,25.4214882789455
247,1436607711919,5.88866738873311
248,1436607712664,17.1888745891308
249,1436607713397,34.0103337949682
250,1436607714123,35.6508144768385
251,1436607714877,18.2822748445462
252,1436607715603,28.1205366291013
253,1436607716348,44.5185869206435
254,1436607717098,34.8850823886195
255,1436607717833,32.1982031678821
256,1436607718552,45.4872909128837
257,1436607719296,25.16159060046
258,1436607720008,42.7581746376202
259,1436607720782,32.4255240381112
260,1436607721493,41.5249927942006
261,1436607722209,42.0303977399517
262,1436607722953,5.600399423233
263,1436607723704,29.089069229197
264,1436607724411,26.3164472433741
265,1436607725137,34.006762073852
266,1436607725831,39.5632151296502
267,1436607726422,54.5878153262217
268,1436607727115,36.178650591041
269,1436607727828,40.672199851695
270,1436607728546,63.222380157339
271,1436607729263,30.0889455474097
272,1436607729968,41.9972350120212
273,1436607730733,52.6784529691463
274,1436607731461,41.9055026561594
275,1436607733374,52.86597331908
276,1436607734018,38.294583334752
277,1436607734761,56.9395700151248
278,1436607735500,19.9788900474689
279,1436607736352,14.1914668887262
280,1436607737056,5.57123988384323
281,1436607737816,27.3044805083046
282,1436607738584,33.2083746203943
283,1436607739304,24.6770628001666
284,1436607740027,47.8686661333912
285,1436607740777,45.3736074214345
286,1436607741514,36.3239351311008
287,1436607742202,38.3897743021572
288,1436607742932,47.393754210065
289,1436607743712,41.5421587922705
290,1436607744437,41.0893540161578
291,1436607745166,58.276424706323
292,1436607745902,56.9297469458732
293,1436607747849,27.4307695477248
294,1436607748594,39.1821333533052
295,1436607749307,39.3639634407982
296,1436607749997,40.8159198610086
297,1436607750784,27.9895182941028
298,1436607751484,45.6869119623236
299,1436607752202,39.9009462577221
300,1436607752941,41.1863802830237
301,1436607753735,18.3031348952761
302,1436607754440,34.6109471472229
303,1436607755165,35.8981046995746
304,1436607755883,35.3262425659933
305,1436607756679,35.8148860791643
306,1436607757395,36.3425669162114
307,1436607758120,29.4977293001238
308,1436607758851,10.7044437571976
309,1436607759594,15.7285156622703
310,1436607760311,40.3604996472308
311,1436607761038,16.2728875627766
312,1436607761829,35.489023924863
313,1436607762400,19.7813308853373
314,1436607763064,34.7038706700316
315,1436607763800,18.3587062879671
316,1436607764525,24.0855495977919
317,1436607765242,13.9143808829155
318,1436607765993,23.169520061294
319,1436607766852,6.22539987890819
320,1436607767574,26.3633412945427
321,1436607768316,39.4056850769066
322,1436607769022,36.3577058119789
323,1436607770844,43.3431331825491
324,1436607771531,38.8034497955223
325,1436607772255,59.9060965780337
326,1436607772979,45.6585486591906
327,1436607773792,43.0991610461142
328,1436607774511,26.5918940621211
329,1436607775223,36.7892443711707
330,1436607775954,31.8759495741267
331,1436607776699,37.2352981418999
332,1436607777483,20.3667837805928
333,1436607778211,1.68593532415788
334,1436607778905,26.2938082938414
335,1436607779640,0.482047885986819
336,1436607780337,27.7021837356566
337,1436607781053,19.7637538578336
338,1436607781698,1.54695812505132
339,1436607783164,19.9357546887102
340,1436607783970,47.428333167503
341,1436607784642,48.1561005046852
342,1436607785375,37.7889928043132
343,1436607786121,37.5303379903817
344,1436607786832,30.4521769700104
345,1436607787548,42.5855182760052
346,1436607788260,1.94596266413911
347,1436607788993,31.1721493227464
348,1436607789651,29.9696539324097
349,1436607790374,11.2754305537978
350,1436607791068,30.8919337602414
351,1436607791738,13.6359583487523
352,1436607792470,1.14289040328558
353,1436607793202,41.0120527005258
354,1436607793935,35.6764694029948
355,1436607794688,22.4405663130887
356,1436607795409,32.9165537114138
357,1436607796125,47.3563612004464
358,1436607796842,46.4309834048092
359,1436607797602,41.5012610696593
360,1436607798335,6.11988992537813
361,1436607799085,6.96935069847012
362,1436607799814,25.091600428116
363,1436607800555,48.6441169274253
364,1436607801292,54.5908006406744
365,1436607802019,40.2394651280846
366,1436607802777,42.4567200762412
367,1436607803489,51.0870032842502
368,1436607804241,33.2032543894871
369,1436607804974,9.3521586391193
370,1436607805712,37.115902669581
371,1436607806495,50.503262641395
372,1436607807205,39.8520968026466
373,1436607807855,36.554042838525
374,1436607808603,44.7346448771443
375,1436607809325,47.8075118703099
376,1436607810043,55.7903563329195
377,1436607810779,45.7199486610022
378,1436607811524,14.7080092928109
379,1436607812273,18.2802555745992
380,1436607812989,43.1622271388962
381,1436607813699,42.3259839539994
382,1436607814354,39.2760251421593
383,1436607815088,44.6041166708099
384,1436607815843,39.1318070434994
385,1436607816548,40.1506121052699
386,1436607817300,42.5293505161392
387,1436607818020,32.2701623635056
388,1436607818768,39.1610184137773
389,1436607819497,51.7218228785947
390,1436607820256,37.6058515994995
391,1436607820972,45.5806536922908
392,1436607821710,40.2303285740869
393,1436607822423,7.99907970939471
394,1436607823137,30.7107341009037
395,1436607823865,18.5644342464785
396,1436607824569,8.60779493726177
397,1436607825346,6.21519704030471
398,1436607826067,5.92645105790417
399,1436607826806,7.16929833392509
400,1436607827486,5.11746092365781
401,1436607828166,20.7224445063879
402,1436607828897,6.80692622184976
403,1436607829638,14.6346778916776
404,1436607830347,10.2003957461977
405,1436607831049,7.37534149246148
406,1436607831743,6.68190193843755
407,1436607832478,14.5573460414899
408,1436607833211,10.8844859426376
409,1436607833951,36.2070013999012
410,1436607834699,45.271583550341
411,1436607835406,32.7415335635771
412,1436607836128,39.5970253865196
413,1436607836820,49.9521131201447
414,1436607837489,36.2118478022462
415,1436607838190,27.1122710035335
416,1436607838899,49.8502590966422
417,1436607839646,49.308763236671
418,1436607840357,17.5452195758792
419,1436607841100,62.317680229009
420,1436607841860,69.9583161008419
421,1436607842597,67.9676878420514
422,1436607843320,38.7178859570798
423,1436607844055,42.3102292140622
424,1436607844790,67.9058677712451
425,1436607845514,68.7866975705375
426,1436607846257,55.0268086049533
427,1436607846969,54.7534212351022
428,1436607847699,39.6513751193798
429,1436607848351,52.0692575377046
430,1436607849089,36.610589822663
431,1436607849833,31.1463008737589
432,1436607850561,40.2087468443728
433,1436607851299,27.3813217313859
434,1436607851970,28.7281637926835
435,1436607852653,45.2309555126932
436,1436607853390,47.8907067004464
437,1436607854125,38.7890172935822
438,1436607854865,38.4195519025618
439,1436607855603,2.78991626002821
440,1436607856338,7.78045814863678
441,1436607857072,4.67834051211544
442,1436607857802,2.15818113919507
443,1436607858547,63.2643401892333
444,1436607859255,63.4620809218514
445,1436607859973,55.5007631384757
446,1436607860748,43.1908337402474
447,1436607861503,37.0095678508212
448,1436607862217,17.9348588505892
449,1436607862931,41.1638354743132
450,1436607863708,35.6471826589569
451,1436607864444,38.2960573082837
452,1436607865168,40.1992616742412
453,1436607865926,21.902781364178
454,1436607866734,20.538270556297
455,1436607867522,41.3536355135786
456,1436607868207,31.616845409515
457,1436607868851,9.12952537589413
458,1436607869592,43.8976667490509
459,1436607870305,14.9582289352111
460,1436607871033,10.1864469883612
461,1436607871784,31.2728064174146
462,1436607872474,16.9197390418902
463,1436607873183,39.1210684247567
464,1436607873919,20.1988290523789
465,1436607874656,9.82571674405459
466,1436607875390,11.4249050495266
467,1436607876109,10.2684386161841
468,1436607876858,43.9880896548491
469,1436607877587,47.1487221518698
470,1436607878309,61.5157633408078
471,1436607879015,62.5559113217168
472,1436607879781,34.1285828165359
473,1436607880536,55.7721320271194
474,1436607881248,52.919974431926
475,1436607881944,24.4602133914767
476,1436607882680,37.5241550159578
477,1436607883398,15.2923251747268
478,1436607884140,43.8973065122365
479,1436607884876,31.2845496637981
480,1436607885605,29.6579894445897
481,1436607886354,35.9930574298222
482,1436607887085,46.5787224677319
483,1436607887827,59.5586178482578
484,1436607888541,19.6504943512209
485,1436607889269,43.5985045335288
486,1436607889980,34.1458333397885
487,1436607890733,47.4819567536205
488,1436607891478,20.6517571243644
489,1436607892170,37.7298310659151
490,1436607892764,39.5538454073333
491,1436607893446,22.9777074420635
492,1436607894211,39.2828910068533
493,1436607894934,40.7754260281179
494,1436607895688,36.4541368933609
495,1436607896391,41.434456319156
496,1436607897120,31.3541776148066
497,1436607897875,32.0565382810408
498,1436607898618,27.96628926004
499,1436607899361,44.854839046419
500,1436607900069,11.2075003959958
501,1436607900839,44.7600654713708
502,1436607901566,34.8991740660942
503,1436607902294,42.3333705298282
504,1436607903008,43.0392575294219
505,1436607903758,61.7474621599569
506,1436607904485,25.8135789843204
507,1436607905216,41.5358672125047
508,1436607905937,28.935707980489
509,1436607906666,42.345925206678
510,1436607907391,28.783404651831
511,1436607908105,37.9652869099561
512,1436607908760,38.3618766923107
513,1436607909480,33.0283682825904
514,1436607910189,35.1626591582011
515,1436607910908,44.8908450070742
516,1436607911652,46.6833165078448
517,1436607912357,38.9477233724526
518,1436607913006,42.9838805712682
519,1436607913749,42.0508537067297
520,1436607914469,65.6642461812133
521,1436607915209,21.8925420508985
522,1436607915933,68.1194257613757
523,1436607916668,52.9231718330395
524,1436607917390,59.4495192896555
525,1436607918136,55.0602700560961
526,1436607918882,54.9192005987346
527,1436607919619,53.5237388583491
528,1436607920349,30.0077904587731
529,1436607921089,28.9334393580685
530,1436607921870,72.9370390372339
531,1436607922599,63.5021863053101
532,1436607923317,17.6008970998042
533,1436607923984,30.5049591523386
534,1436607924760,56.211689937518
535,1436607925463,57.6403668058595
536,1436607926178,41.0602639949457
537,1436607926960,62.8588514331016
538,1436607927749,19.2805788904541
539,1436607928457,15.5578174625258
540,1436607929112,65.804537143485
541,1436607929866,29.9676838407668
542,1436607930621,56.2054393768916
543,1436607931338,24.9291181993007
544,1436607932087,64.3604164781667
545,1436607932903,56.5120429128335
546,1436607933631,59.1540872669684
547,1436607934377,55.3739688238445
548,1436607935125,29.2758660572984
549,1436607935872,58.4595318856943
550,1436607937583,41.8308870853473
551,1436607938267,48.2931299711653
552,1436607939008,44.2732972455305
553,1436607939752,43.7281113134688
554,1436607940477,47.9121861518796
555,1436607941179,43.6046573677736
556,1436607941903,44.2504832798964
557,1436607942634,30.6683013284243
558,1436607943353,8.92633493312671
559,1436607944092,7.23894661811855
560,1436607944834,47.8845888229507
561,1436607945556,18.5833087589557
562,1436607946242,50.4223427276581
563,1436607947003,30.8001730768895
564,1436607947746,40.5520479800369
565,1436607948453,8.59111579619663
566,1436607949168,45.2256360905254
567,1436607949919,66.075196787812
568,1436607950646,52.5106463134522
569,1436607951405,44.6947725833691
570,1436607952176,37.628938197903
571,1436607952887,34.1546454677439
572,1436607953637,4.1566025223733
573,1436607954358,35.3193404305173
574,1436607955875,5.32107782601553
575,1436607956589,32.8639949685038
