id,attr_time,attr_db
1,1436607529521,3.04169880618862
2,1436607530016,0.897795098058369
3,1436607530531,9.97564561176824
4,1436607531014,1.79311236086539
5,1436607531501,24.1976985905511
6,1436607532002,3.74488281181633
7,1436607532502,25.3670924747439
8,1436607532989,1.27550198126584
9,1436607533546,10.4538108249516
10,1436607534062,3.45388039088728
11,1436607534545,21.1470777676623
12,1436607535055,44.3139008191517
13,1436607535556,61.4258382077002
14,1436607536037,68.5808602916793
15,1436607536533,70.7225985970167
16,1436607537005,66.2864346775506
17,1436607537466,55.0536644654008
18,1436607537951,69.5938748824769
19,1436607538437,63.0219014709566
20,1436607538916,69.1034588126216
21,1436607539407,65.7656913952434
22,1436607539889,69.821844912827
23,1436607540376,66.9749432333451
24,1436607540880,69.9876542636688
25,1436607541383,62.0196323207303
26,1436607541876,59.8323614267063
27,1436607542363,63.5057458274178
28,1436607542847,64.9694747425738
29,1436607543305,63.5712208563871
30,1436607543706,72.7856158462584
31,1436607544081,60.7745620920292
32,1436607544558,58.2785406026833
33,1436607545037,66.7962240144741
34,1436607545517,68.8882603762343
35,1436607546047,57.0145953330927
36,1436607546532,42.8231837693431
37,1436607547011,54.890284320191
38,1436607547494,56.0263716123582
39,1436607548025,43.2242160987637
40,1436607548506,40.2387460160689
41,1436607548978,32.8519231832925
42,1436607549428,37.3748638154752
43,1436607549807,39.5778543507356
44,1436607550211,16.1712161295383
45,1436607550718,51.8914541332385
46,1436607551251,51.6510688548551
47,1436607551745,39.0198738684087
48,1436607552236,18.4436563443587
49,1436607552732,29.7323931350661
50,1436607553214,36.361112467672
51,1436607553715,14.1683408865384
52,1436607554219,8.92405883114164
53,1436607554714,32.5945549999178
54,1436607555201,35.3625666793175
55,1436607555754,20.1970876255565
56,1436607556262,27.1481119675105
57,1436607556747,25.350397281348
58,1436607557291,20.8572000932649
59,1436607557778,25.9204916485311
60,1436607558265,42.4001507177044
61,1436607558750,30.5086381930201
62,1436607559246,25.6844993667895
63,1436607559741,22.7007152210661
64,1436607560219,11.3878264079211
65,1436607560765,19.5336041467954
66,1436607561237,5.67951340599151
67,1436607561751,19.7454915664479
68,1436607562238,17.3821819047019
69,1436607562740,14.3368837330881
70,1436607563264,6.5608829244725
71,1436607563807,6.07156329168152
72,1436607564248,7.85013795882701
73,1436607564648,21.5996118209886
74,1436607565115,10.7533476730551
75,1436607565637,12.3793466701181
76,1436607566154,31.4433829066554
77,1436607566635,33.1283337174142
78,1436607567122,34.734134182852
79,1436607567610,21.799711338202
80,1436607568116,7.9468516021584
81,1436607568548,18.0384855824444
82,1436607569028,16.6877783694982
83,1436607569525,17.4630287641019
84,1436607570010,41.3917751774937
85,1436607570548,41.619032798143
86,1436607571022,14.8427116308797
87,1436607571480,4.62005795575337
88,1436607571865,11.7791559850639
89,1436607572293,8.83500462377724
90,1436607572760,33.3457563349197
91,1436607573245,0.546916668732343
92,1436607573722,23.5278310520631
93,1436607574223,12.2857488906082
94,1436607574727,11.9623219335526
95,1436607575219,14.9854732061887
96,1436607575715,13.7139897216655
97,1436607576228,10.8312624508391
98,1436607576735,15.7493001256812
99,1436607577222,5.81030781869816
100,1436607577715,35.0392217823762
101,1436607578231,32.674460508871
102,1436607578743,28.0287767160213
103,1436607579253,18.740845682896
104,1436607579746,45.1093600468834
105,1436607580217,37.2898205094132
106,1436607580725,25.4819573257818
107,1436607581211,30.3262802700799
108,1436607581724,37.6749029562149
109,1436607582234,38.2121508853142
110,1436607582732,34.9793681286875
111,1436607583213,41.5308408778845
112,1436607583722,46.447327532057
113,1436607584204,46.5971310652227
114,1436607584672,55.9784134457308
115,1436607585197,46.2178020508081
116,1436607585742,36.8160602407489
117,1436607586235,23.7524984580491
118,1436607586730,23.2824504547872
119,1436607587215,26.9382889548961
120,1436607587737,20.7624734857522
121,1436607588234,15.8146092952559
122,1436607588699,17.1696078868871
123,1436607589213,12.9941118018144
124,1436607589713,15.86546214712
125,1436607590220,18.574864432661
126,1436607590787,6.72688044359045
127,1436607591243,8.82205416767749
128,1436607591713,23.0712268752993
129,1436607592221,14.5669541195471
130,1436607592712,6.03001221556973
131,1436607593213,8.80160807535392
132,1436607593784,25.3396775399048
133,1436607594289,8.95328787601432
134,1436607594785,16.561722379347
135,1436607595290,4.01113248218082
136,1436607595853,4.0642726500365
137,1436607596341,8.52243176587247
138,1436607596800,5.69934637451178
139,1436607597241,5.49379967068611
140,1436607597678,1.47988528489956
141,1436607598142,3.36476499923589
142,1436607598624,7.60443458874655
143,1436607599147,41.5632308197747
144,1436607599637,46.4606889610262
145,1436607600158,45.8874504514788
146,1436607600679,29.7305109206386
147,1436607601219,55.5526421978314
148,1436607601620,54.247902518683
149,1436607602081,44.0973063461175
150,1436607602533,47.5851173165976
151,1436607602990,55.1711081215928
152,1436607603446,59.8991443998722
153,1436607603981,27.4529773497294
154,1436607604438,46.2619842510039
155,1436607604853,19.5163985741632
156,1436607605306,21.2006782230115
157,1436607605876,12.4545841957782
158,1436607606367,12.3734698171763
159,1436607606853,19.0461430147603
160,1436607607324,27.8489674011938
161,1436607607781,9.09697297564825
162,1436607608228,8.30939839565385
163,1436607608615,33.4068055965164
164,1436607609984,8.67062106194631
165,1436607610428,27.3956806673394
166,1436607610901,7.40635038731161
167,1436607611381,24.6695381186984
168,1436607611872,15.143933083358
169,1436607612321,6.12873944682272
170,1436607612752,6.63898831636502
171,1436607613177,5.54543548629765
172,1436607613600,6.27115309794782
173,1436607614061,32.8159137342702
174,1436607614490,11.5469561004676
175,1436607614979,12.4738844392433
176,1436607615417,13.1562061300127
177,1436607615963,21.1359800224186
178,1436607616458,22.7306557340907
179,1436607616936,30.3149351193461
180,1436607617492,26.2511953581755
181,1436607617952,25.7321170124811
182,1436607618370,30.3088345574527
183,1436607619914,17.2891854540227
184,1436607620309,12.6390650566933
185,1436607620759,12.2081932364579
186,1436607621236,5.28345695188032
187,1436607621745,4.12885205264047
188,1436607622226,8.03992682914274
189,1436607622723,17.4637084927895
190,1436607623214,3.78093511899981
191,1436607623712,8.3123463625699
192,1436607624245,10.7267209661473
193,1436607624767,6.84726965309038
194,1436607625226,22.4439263615088
195,1436607625692,11.7100504664692
196,1436607626194,21.7614851163673
197,1436607626706,13.9504642539906
198,1436607627195,8.94806499029222
199,1436607627688,8.90365743682269
200,1436607628183,7.6875600477215
201,1436607628644,10.2676887401023
202,1436607629167,5.90376555749326
203,1436607629587,5.87934017725158
204,1436607630096,16.5888229126312
205,1436607630576,17.0360853785108
206,1436607631072,23.6723151842593
207,1436607631561,16.1930273355102
208,1436607632036,25.8007120459841
209,1436607632511,26.1235758763978
210,1436607632983,25.9118722977762
211,1436607633453,15.2517475774347
212,1436607635067,28.444564421683
213,1436607635445,28.2920723850405
214,1436607635895,26.6549019973985
215,1436607636368,33.3110066914762
216,1436607636891,34.6100563494075
217,1436607637366,38.89775788641
218,1436607637857,37.3748121238491
219,1436607638345,36.898063456908
220,1436607638824,42.9086731218125
221,1436607639322,38.2603614544326
222,1436607639812,35.6364557029667
223,1436607640344,30.7730134275459
224,1436607640824,27.3901354928107
225,1436607641314,21.8280635887535
226,1436607641788,28.8963388535923
227,1436607642300,23.1894098058465
228,1436607642767,32.2307025516416
229,1436607644036,9.90277726444559
230,1436607644445,6.57964082330265
231,1436607644915,18.5066326900862
232,1436607645332,5.35950286761554
233,1436607645751,4.72963357366242
234,1436607646193,6.02009258888253
235,1436607646704,8.57868550717982
236,1436607647175,5.38578962674771
237,1436607647687,7.1162145389693
238,1436607648190,4.49713695294379
239,1436607648690,19.4646115681363
240,1436607649181,21.7342868542578
241,1436607649622,5.20880605322799
242,1436607650196,7.79831630620609
243,1436607650713,2.02198844174209
244,1436607651212,0.436838208705936
245,1436607651711,1.80208075571283
246,1436607652215,13.1437756015848
247,1436607652682,16.9766816508803
248,1436607653196,32.9176710649117
249,1436607653697,20.7353677917633
250,1436607654237,33.7591443632967
251,1436607654778,26.8720813083784
252,1436607655303,21.4727789928166
253,1436607655775,25.0480146330822
254,1436607656217,31.4015194671086
255,1436607656660,27.1784141652287
256,1436607657119,35.1819945159135
257,1436607657596,42.9060103530361
258,1436607658104,33.2856130568509
259,1436607658614,23.2558595281827
260,1436607659156,32.9652344408691
261,1436607659644,14.4201520646277
262,1436607660252,35.2881296262639
263,1436607660763,12.3945396567664
264,1436607661265,28.3384000800021
265,1436607661759,43.0245255591333
266,1436607662256,32.1068652118047
267,1436607662749,35.1309438362559
268,1436607663258,1.11314417682225
269,1436607663755,13.3745664922291
270,1436607664249,40.624994380497
271,1436607664775,37.4000132703547
272,1436607665219,34.455600332865
273,1436607665568,41.7224635547959
274,1436607666018,6.3467652371371
275,1436607666496,31.6122727333408
276,1436607666974,32.591768182259
277,1436607667453,39.3717068343732
278,1436607667933,31.108457043813
279,1436607668422,18.9300010247962
280,1436607668892,46.0372638857394
281,1436607669383,38.516318569569
282,1436607669767,37.5464277198075
283,1436607670171,20.2713237816988
284,1436607670697,45.8712612962295
285,1436607671194,34.063620297915
286,1436607671706,15.1111630543369
287,1436607672198,18.3700157809181
288,1436607672707,16.6986248884478
289,1436607673207,3.71591665308759
290,1436607673702,32.3060772724774
291,1436607674191,1.34008138386981
292,1436607674692,18.5722873478827
293,1436607675178,34.7279382721673
294,1436607675675,19.1866494479361
295,1436607676182,15.0902928081688
296,1436607676686,9.40698954519063
297,1436607677255,16.8358752137271
298,1436607677720,2.19065179247934
299,1436607678174,17.8525763543563
300,1436607678677,8.52485579146222
301,1436607679188,6.54644965526912
302,1436607679692,14.1797568201816
303,1436607680187,1.1784519253776
304,1436607680786,8.6336243132
305,1436607681285,40.2833242769372
306,1436607681778,14.8158561812566
307,1436607682280,13.9668158746535
308,1436607682770,2.2239949798286
309,1436607683268,4.22755640615072
310,1436607683774,37.0463714524298
311,1436607684230,26.7375107984535
312,1436607684666,8.38940057631854
313,1436607685120,16.9967677177346
314,1436607685513,10.3548086966128
315,1436607685973,2.6144377738781
316,1436607686458,8.05735489833937
317,1436607686958,3.69907373596571
318,1436607687453,23.2885580170901
319,1436607687925,15.5384709830808
320,1436607688411,7.33756206700277
321,1436607688901,7.12459308586333
322,1436607689384,27.2640759285994
323,1436607689773,8.73877485526946
324,1436607690211,2.29106781998036
325,1436607690672,28.067301563266
326,1436607691187,31.3613854264044
327,1436607691709,6.6196544211095
328,1436607692199,2.00778420368195
329,1436607692692,7.94040023945211
330,1436607693201,3.13509636885832
331,1436607693684,6.12390749111879
332,1436607694179,14.3767923540046
333,1436607694627,3.09221928718311
334,1436607695134,4.19541091961902
335,1436607695628,28.3928343609174
336,1436607696147,23.7721831394118
337,1436607696623,6.8228235305896
338,1436607697153,23.9729385925307
339,1436607697648,27.5829547051357
340,1436607698172,28.2276394454389
341,1436607698674,35.0689185096489
342,1436607699202,32.77997864535
343,1436607699678,27.6377156351719
344,1436607700187,43.8184472266415
345,1436607700704,39.7313975970094
346,1436607701198,47.1223515782434
347,1436607701692,39.8639408895125
348,1436607702217,53.7256917007253
349,1436607702732,38.9240669681153
350,1436607703226,39.2615563843437
351,1436607703732,47.7583796350352
352,1436607704227,34.9921691865851
353,1436607704730,4.45449134414435
354,1436607705228,35.46969124336
355,1436607705700,5.3295267571706
356,1436607706133,5.42851472798464
357,1436607706581,43.4948512778146
358,1436607707073,9.08831737987661
359,1436607707563,44.0657546500544
360,1436607708053,44.4322005062942
361,1436607708534,19.545555394583
362,1436607709039,12.0659103132569
363,1436607709518,4.29589353993579
364,1436607709912,30.2181534446066
365,1436607710336,32.9415411234655
366,1436607710837,41.7135976121592
367,1436607711316,52.2730668702188
368,1436607711780,10.1541457729179
369,1436607712277,30.3109626335583
370,1436607712763,11.7584371666053
371,1436607713236,20.1994977649441
372,1436607713721,28.8017184307112
373,1436607714226,38.1310524315837
374,1436607714718,35.5732269256784
375,1436607715201,9.44153002677513
376,1436607715667,27.0396290865558
377,1436607716068,47.2847834271434
378,1436607716529,37.4023808246374
379,1436607717031,42.5091319462278
380,1436607717497,39.7959800942032
381,1436607717968,36.8740887325258
382,1436607718445,34.5404844548411
383,1436607718942,29.1014185540009
384,1436607719424,21.4623736400692
385,1436607719915,43.7073768145665
386,1436607720386,30.9707229558949
387,1436607720954,29.9034049161062
388,1436607721407,54.8104696174411
389,1436607721872,50.8355743509207
390,1436607722357,40.8854751681382
391,1436607722838,1.41750878962462
392,1436607723324,36.6429708032136
393,1436607723824,41.9445939146049
394,1436607724307,42.7925361601332
395,1436607724800,17.384008686272
396,1436607725337,37.951757745124
397,1436607725779,39.5616769893184
398,1436607726122,47.0200331604069
399,1436607726514,52.9163259800966
400,1436607726987,44.8596748994301
401,1436607727473,44.6906846756473
402,1436607727974,38.4388313436785
403,1436607728460,44.3349296342302
404,1436607728946,51.8014743016261
405,1436607729433,44.6177391105662
406,1436607729926,36.8228914092144
407,1436607730290,55.5284419964116
408,1436607730700,40.7962389511099
409,1436607731157,42.8125251464401
410,1436607731635,47.1046796991978
411,1436607732166,47.9387134463748
412,1436607732655,36.6659880794454
413,1436607733176,34.7129509373636
414,1436607733669,37.8436981666991
415,1436607734177,35.8149460337883
416,1436607734651,44.040698814898
417,1436607735134,37.4384742298111
418,1436607735545,11.4848468332334
419,1436607736107,15.2169532375676
420,1436607736588,41.8632438960807
421,1436607737082,8.7845234667142
422,1436607737619,34.3721128622792
423,1436607738143,11.457753824094
424,1436607738653,34.968010327324
425,1436607739181,25.3092977737786
426,1436607739670,10.9685276090772
427,1436607740164,29.0976116852282
428,1436607740660,22.7497555220498
429,1436607741246,32.4526788529627
430,1436607741761,31.1143217492497
431,1436607742244,22.0446670176494
432,1436607742728,37.9716232790552
433,1436607743232,36.8106051472603
434,1436607743719,45.4320869182858
435,1436607744221,41.2687551248367
436,1436607744724,46.2886963842406
437,1436607745201,37.3062021764736
438,1436607745757,49.9229339138668
439,1436607746356,38.2012041514245
440,1436607746783,41.5150475472996
441,1436607747236,16.8645281879809
442,1436607747724,27.597822760421
443,1436607748208,48.1297499053165
444,1436607748708,41.527376441116
445,1436607749200,43.147997073783
446,1436607749702,46.8951777511245
447,1436607750175,26.1663300639429
448,1436607750659,10.5893378400435
449,1436607751059,45.4421116252306
450,1436607751465,50.375797416862
451,1436607751918,32.7471450292927
452,1436607752419,37.0894678383459
453,1436607752894,39.6103061290274
454,1436607753397,17.4199985728916
455,1436607753876,22.0929046067189
456,1436607754363,27.2774836956834
457,1436607754877,16.8236457788477
458,1436607755384,36.0687226646139
459,1436607755952,35.7836148103672
460,1436607756452,12.5405438270614
461,1436607756938,24.5410783710355
462,1436607757423,27.8649988818797
463,1436607757912,32.0256861148231
464,1436607758403,23.1214822416261
465,1436607758907,7.41903978275779
466,1436607759398,35.0141348747739
467,1436607759884,43.5063549407614
468,1436607760378,40.3984895464613
469,1436607760937,11.2158457088679
470,1436607761423,17.8880918427181
471,1436607761906,37.1038391463995
472,1436607762411,18.6713263021128
473,1436607762886,30.5268418934617
474,1436607763399,36.507161746922
475,1436607763852,15.9453360615016
476,1436607764309,10.6534406375477
477,1436607764762,17.5085194171614
478,1436607765328,17.8930857357023
479,1436607765835,8.03783417338246
480,1436607766305,32.6127412861317
481,1436607766786,8.69906778448796
482,1436607767269,35.5662310835036
483,1436607767761,15.820668590078
484,1436607768240,40.6590527742335
485,1436607768728,42.2215486375093
486,1436607769185,37.3525788008049
487,1436607769614,41.7534657546737
488,1436607770108,12.4247453071564
489,1436607770523,31.2088869587094
490,1436607770984,43.6891616197416
491,1436607771440,32.7420219557417
492,1436607771916,55.3459924616648
493,1436607772412,57.3230112490075
494,1436607772892,40.3193258150616
495,1436607773381,45.5933269508275
496,1436607773856,42.8930614146772
497,1436607774334,41.2408523578095
498,1436607774827,31.7638670277219
499,1436607775373,35.9733460491353
500,1436607775849,41.3216068256868
501,1436607776344,41.8245367165767
502,1436607776798,37.5572155680157
503,1436607777310,12.1091760033858
504,1436607777796,9.43788701281527
505,1436607778271,1.08459562314124
506,1436607778754,39.9625455080988
507,1436607779236,10.8689563684387
508,1436607779734,4.32126886892697
509,1436607780222,0.607026871526848
510,1436607780732,4.02958366200947
511,1436607781222,16.7709991332814
512,1436607781716,4.39208097379989
513,1436607782203,8.12029915074456
514,1436607782698,11.9752523732801
515,1436607783196,1.92608647780424
516,1436607783718,37.8237312461915
517,1436607784208,46.8056152274258
518,1436607784728,49.0893571506881
519,1436607785221,31.3658708269697
520,1436607785653,46.0355138351189
521,1436607786131,40.7648478630255
522,1436607786651,47.7668556844246
523,1436607787101,38.42525765354
524,1436607787523,23.2377248673546
525,1436607787980,18.9149671374264
526,1436607788461,1.56996711767997
527,1436607788949,33.912528699231
528,1436607789453,34.90306129077
529,1436607789939,2.7499810649067
530,1436607790474,18.8391710093269
531,1436607790927,22.3984117343421
532,1436607791325,34.2712095946202
533,1436607791805,20.1807891368256
534,1436607792294,10.7227749180587
535,1436607792793,1.97792549556365
536,1436607793287,28.3048534026755
537,1436607793773,1.97074410645008
538,1436607794266,22.323303396033
539,1436607794764,23.6866442411379
540,1436607795283,40.0449063237632
541,1436607795772,42.8778491416442
542,1436607796256,52.5861851338758
543,1436607796751,39.4015427834364
544,1436607797232,31.2238849970753
545,1436607797763,35.391707089274
546,1436607798257,7.9913440197297
547,1436607798761,5.85764842479878
548,1436607799248,8.53966470700097
549,1436607799743,6.48961570434148
550,1436607800244,44.7115495279732
551,1436607800773,47.2056257628822
552,1436607801250,43.714833029391
553,1436607801756,47.3879916712704
554,1436607802228,30.4717972637219
555,1436607802738,42.4005353123433
556,1436607803223,48.8963660251534
557,1436607803724,47.1789527304426
558,1436607804208,36.4720013384698
559,1436607804707,6.47692974096734
560,1436607805280,9.34287718893456
561,1436607805767,41.3329775715637
562,1436607806257,42.9001874687416
563,1436607806733,32.5400645897796
564,1436607807121,53.6568335363503
565,1436607807495,45.4357694890324
566,1436607807947,37.6108918373452
567,1436607808418,9.09887094039641
568,1436607808905,46.9180993265109
569,1436607809371,52.8587940610326
570,1436607809892,46.9707583465268
571,1436607810385,44.1765541797938
572,1436607810873,45.7032569610794
573,1436607811352,44.9028282426345
574,1436607811801,12.8041227765748
575,1436607812300,35.9654523350448
