id,attr_time,attr_light
1,1436599548976,83.0
2,1436599548989,83.0
3,1436599549012,83.0
4,1436599549032,83.0
5,1436599549052,83.0
6,1436599549072,83.0
7,1436599549092,83.0
8,1436599549112,83.0
9,1436599549132,83.0
10,1436599549152,83.0
11,1436599549172,83.0
12,1436599549192,83.0
13,1436599549209,83.0
14,1436599549232,83.0
15,1436599549252,83.0
16,1436599549272,83.0
17,1436599549292,83.0
18,1436599549312,83.0
19,1436599549332,83.0
20,1436599549352,84.0
21,1436599549372,84.0
22,1436599549390,84.0
23,1436599549412,84.0
24,1436599549432,84.0
25,1436599549452,84.0
26,1436599549474,84.0
27,1436599549537,84.0
28,1436599549547,84.0
29,1436599549548,84.0
30,1436599549551,84.0
31,1436599549572,84.0
32,1436599549593,84.0
33,1436599549609,84.0
34,1436599549635,84.0
35,1436599549662,84.0
36,1436599549670,84.0
37,1436599549691,84.0
38,1436599549710,84.0
39,1436599549737,84.0
40,1436599549752,84.0
41,1436599549771,84.0
42,1436599549791,84.0
43,1436599549811,84.0
44,1436599549831,84.0
45,1436599549851,84.0
46,1436599549873,84.0
47,1436599549893,84.0
48,1436599549913,84.0
49,1436599549931,84.0
50,1436599549953,84.0
51,1436599549973,84.0
52,1436599549993,85.0
53,1436599550010,85.0
54,1436599550031,85.0
55,1436599550053,85.0
56,1436599550073,85.0
57,1436599550094,85.0
58,1436599550112,85.0
59,1436599550131,85.0
60,1436599550152,85.0
61,1436599550173,85.0
62,1436599550192,85.0
63,1436599550215,85.0
64,1436599550281,85.0
65,1436599550282,85.0
66,1436599550283,85.0
67,1436599550290,85.0
68,1436599550318,85.0
69,1436599550331,85.0
70,1436599550352,85.0
71,1436599550373,85.0
72,1436599550390,85.0
73,1436599550413,85.0
74,1436599550430,85.0
75,1436599550453,85.0
76,1436599550471,85.0
77,1436599550493,85.0
78,1436599550513,85.0
79,1436599550533,85.0
80,1436599550553,85.0
81,1436599550574,85.0
82,1436599550594,85.0
83,1436599550614,85.0
84,1436599550633,85.0
85,1436599550653,85.0
86,1436599550674,85.0
87,1436599550694,85.0
88,1436599550715,85.0
89,1436599550731,85.0
90,1436599550753,85.0
91,1436599550780,85.0
92,1436599550791,85.0
93,1436599550811,85.0
94,1436599550831,85.0
95,1436599550852,85.0
96,1436599550872,85.0
97,1436599550892,85.0
98,1436599550912,85.0
99,1436599550933,85.0
100,1436599551004,85.0
101,1436599551005,85.0
102,1436599551006,85.0
103,1436599551015,85.0
104,1436599551031,85.0
105,1436599551053,85.0
106,1436599551072,85.0
107,1436599551091,85.0
108,1436599551111,85.0
109,1436599551136,85.0
110,1436599551155,85.0
111,1436599551172,85.0
112,1436599551194,85.0
113,1436599551214,85.0
114,1436599551234,85.0
115,1436599551255,85.0
116,1436599551274,85.0
117,1436599551293,85.0
118,1436599551314,85.0
119,1436599551334,85.0
120,1436599551355,85.0
121,1436599551374,85.0
122,1436599551391,85.0
123,1436599551414,85.0
124,1436599551433,85.0
125,1436599551455,85.0
126,1436599551475,85.0
127,1436599551494,85.0
128,1436599551514,85.0
129,1436599551534,85.0
130,1436599551554,85.0
131,1436599551574,85.0
132,1436599551594,85.0
133,1436599551615,85.0
134,1436599551634,85.0
135,1436599551655,85.0
136,1436599551726,84.0
137,1436599551727,84.0
138,1436599551728,84.0
139,1436599551742,84.0
140,1436599551757,84.0
141,1436599551773,84.0
142,1436599551798,84.0
143,1436599551813,84.0
144,1436599551854,84.0
145,1436599551855,84.0
146,1436599551872,84.0
147,1436599551894,84.0
148,1436599551916,84.0
149,1436599551932,84.0
150,1436599551956,84.0
151,1436599552002,84.0
152,1436599552003,84.0
153,1436599552014,85.0
154,1436599552032,85.0
155,1436599552056,85.0
156,1436599552075,85.0
157,1436599552095,85.0
158,1436599552115,85.0
159,1436599552135,85.0
160,1436599552153,85.0
161,1436599552174,85.0
162,1436599552194,85.0
163,1436599552213,85.0
164,1436599552237,85.0
165,1436599552256,85.0
166,1436599552274,85.0
167,1436599552295,85.0
168,1436599552315,85.0
169,1436599552334,85.0
170,1436599552356,85.0
171,1436599552373,85.0
172,1436599552394,85.0
173,1436599552418,85.0
174,1436599552480,85.0
175,1436599552481,85.0
176,1436599552483,85.0
177,1436599552524,85.0
178,1436599552525,85.0
179,1436599552533,85.0
180,1436599552556,85.0
181,1436599552572,85.0
182,1436599552596,85.0
183,1436599552612,85.0
184,1436599552632,85.0
185,1436599552654,85.0
186,1436599552672,85.0
187,1436599552693,85.0
188,1436599552713,85.0
189,1436599552733,85.0
190,1436599552754,85.0
191,1436599552774,85.0
192,1436599552793,85.0
193,1436599552814,85.0
194,1436599552836,85.0
195,1436599552856,85.0
196,1436599552876,85.0
197,1436599552899,85.0
198,1436599552916,85.0
199,1436599552936,85.0
200,1436599552956,85.0
201,1436599552976,85.0
202,1436599552995,85.0
203,1436599553015,85.0
204,1436599553036,85.0
205,1436599553056,86.0
206,1436599553076,86.0
207,1436599553093,86.0
208,1436599553115,86.0
209,1436599553135,86.0
210,1436599553154,86.0
211,1436599553175,86.0
212,1436599553244,86.0
213,1436599553245,86.0
214,1436599553246,86.0
215,1436599553253,86.0
216,1436599553273,87.0
217,1436599553296,87.0
218,1436599553313,87.0
219,1436599553333,87.0
220,1436599553355,87.0
221,1436599553374,87.0
222,1436599553393,88.0
223,1436599553414,88.0
224,1436599553436,88.0
225,1436599553456,88.0
226,1436599553476,88.0
227,1436599553496,88.0
228,1436599553515,89.0
229,1436599553536,89.0
230,1436599553556,89.0
231,1436599553576,89.0
232,1436599553597,89.0
233,1436599553615,89.0
234,1436599553636,89.0
235,1436599553655,89.0
236,1436599553677,89.0
237,1436599553694,89.0
238,1436599553814,89.0
239,1436599553815,89.0
240,1436599553816,89.0
241,1436599553817,89.0
242,1436599553818,89.0
243,1436599553819,89.0
244,1436599553858,89.0
245,1436599553859,89.0
246,1436599554007,89.0
247,1436599554068,89.0
248,1436599554069,90.0
249,1436599554070,90.0
250,1436599554071,92.0
251,1436599554072,92.0
252,1436599554073,93.0
253,1436599554074,93.0
254,1436599554075,95.0
255,1436599554088,95.0
256,1436599554089,97.0
257,1436599554132,97.0
258,1436599554133,98.0
259,1436599554134,99.0
260,1436599554155,99.0
261,1436599554174,99.0
262,1436599554207,99.0
263,1436599554214,99.0
264,1436599554238,99.0
265,1436599554254,100.0
266,1436599554274,100.0
267,1436599554294,100.0
268,1436599554314,100.0
269,1436599554335,99.0
270,1436599554355,99.0
271,1436599554374,99.0
272,1436599554394,99.0
273,1436599554414,99.0
274,1436599554435,99.0
275,1436599554455,99.0
276,1436599554475,100.0
277,1436599554495,100.0
278,1436599554516,100.0
279,1436599554535,100.0
280,1436599554555,100.0
281,1436599554575,100.0
282,1436599554594,100.0
283,1436599554626,100.0
284,1436599554638,101.0
285,1436599554653,101.0
286,1436599554673,101.0
287,1436599554694,102.0
288,1436599554715,102.0
289,1436599554734,102.0
290,1436599554756,102.0
291,1436599554775,103.0
292,1436599554798,103.0
293,1436599554818,103.0
294,1436599554835,103.0
295,1436599554858,103.0
296,1436599554878,103.0
297,1436599554898,102.0
298,1436599554918,102.0
299,1436599554935,100.0
300,1436599554958,100.0
301,1436599554977,98.0
302,1436599554995,95.0
303,1436599555018,95.0
304,1436599555036,91.0
305,1436599555057,91.0
306,1436599555078,87.0
307,1436599555097,87.0
308,1436599555118,82.0
309,1436599555137,82.0
310,1436599555155,77.0
311,1436599555178,77.0
312,1436599555195,73.0
313,1436599555216,73.0
314,1436599555247,69.0
315,1436599555302,66.0
316,1436599555303,66.0
317,1436599555304,63.0
318,1436599555326,63.0
319,1436599555335,61.0
320,1436599555358,61.0
321,1436599555375,59.0
322,1436599555395,59.0
323,1436599555415,57.0
324,1436599555435,57.0
325,1436599555458,56.0
326,1436599555479,56.0
327,1436599555496,54.0
328,1436599555515,54.0
329,1436599555538,52.0
330,1436599555558,51.0
331,1436599555576,51.0
332,1436599555599,50.0
333,1436599555619,50.0
334,1436599555635,50.0
335,1436599555656,50.0
336,1436599555679,49.0
337,1436599555696,49.0
338,1436599555717,49.0
339,1436599555737,49.0
340,1436599555756,49.0
341,1436599555779,49.0
342,1436599555799,49.0
343,1436599555816,49.0
344,1436599555839,49.0
345,1436599555856,50.0
346,1436599555876,50.0
347,1436599555899,50.0
348,1436599555917,50.0
349,1436599555936,51.0
350,1436599555957,51.0
351,1436599555985,50.0
352,1436599556041,50.0
353,1436599556044,48.0
354,1436599556045,48.0
355,1436599556066,46.0
356,1436599556076,46.0
357,1436599556099,43.0
358,1436599556116,41.0
359,1436599556136,41.0
360,1436599556156,38.0
361,1436599556176,38.0
362,1436599556198,36.0
363,1436599556217,36.0
364,1436599556237,34.0
365,1436599556256,34.0
366,1436599556280,33.0
367,1436599556299,33.0
368,1436599556318,32.0
369,1436599556339,32.0
370,1436599556357,32.0
371,1436599556378,31.0
372,1436599556399,31.0
373,1436599556418,30.0
374,1436599556439,30.0
375,1436599556459,29.0
376,1436599556478,29.0
377,1436599556501,28.0
378,1436599556521,28.0
379,1436599556536,28.0
380,1436599556557,28.0
381,1436599556576,29.0
382,1436599556613,29.0
383,1436599556645,29.0
384,1436599556646,29.0
385,1436599556656,29.0
386,1436599556676,29.0
387,1436599556697,29.0
388,1436599556718,29.0
389,1436599556744,29.0
390,1436599556764,28.0
391,1436599556777,28.0
392,1436599556796,28.0
393,1436599556816,28.0
394,1436599556836,28.0
395,1436599556856,28.0
396,1436599556877,28.0
397,1436599556905,28.0
398,1436599556924,27.0
399,1436599556936,27.0
400,1436599556957,27.0
401,1436599556977,27.0
402,1436599556996,27.0
403,1436599557017,27.0
404,1436599557037,27.0
405,1436599557057,27.0
406,1436599557077,27.0
407,1436599557097,26.0
408,1436599557117,26.0
409,1436599557137,25.0
410,1436599557160,25.0
411,1436599557177,24.0
412,1436599557198,24.0
413,1436599557218,23.0
414,1436599557238,22.0
415,1436599557257,22.0
416,1436599557278,21.0
417,1436599557297,21.0
418,1436599557318,21.0
419,1436599557339,21.0
420,1436599557360,21.0
421,1436599557378,21.0
422,1436599557400,21.0
423,1436599557418,21.0
424,1436599557440,21.0
425,1436599557470,21.0
426,1436599557477,21.0
427,1436599557500,21.0
428,1436599557517,21.0
429,1436599557537,21.0
430,1436599557559,21.0
431,1436599557578,22.0
432,1436599557597,22.0
433,1436599557621,23.0
434,1436599557641,23.0
435,1436599557661,24.0
436,1436599557683,24.0
437,1436599557700,25.0
438,1436599557721,25.0
439,1436599557737,26.0
440,1436599557762,26.0
441,1436599557778,27.0
442,1436599557798,27.0
443,1436599557819,27.0
444,1436599557841,27.0
445,1436599557861,27.0
446,1436599557880,27.0
447,1436599557900,27.0
448,1436599557920,27.0
449,1436599557942,27.0
450,1436599557961,27.0
451,1436599557982,27.0
452,1436599558000,27.0
453,1436599558020,27.0
454,1436599558041,27.0
455,1436599558060,27.0
456,1436599558080,27.0
457,1436599558143,27.0
458,1436599558144,27.0
459,1436599558145,26.0
460,1436599558166,26.0
461,1436599558178,25.0
462,1436599558211,25.0
463,1436599558225,24.0
464,1436599558238,24.0
465,1436599558258,23.0
466,1436599558278,23.0
467,1436599558298,23.0
468,1436599558319,23.0
469,1436599558338,22.0
470,1436599558358,22.0
471,1436599558378,22.0
472,1436599558398,22.0
473,1436599558421,22.0
474,1436599558442,22.0
475,1436599558461,22.0
476,1436599558481,22.0
477,1436599558499,22.0
478,1436599558521,22.0
479,1436599558542,22.0
480,1436599558561,22.0
481,1436599558581,22.0
482,1436599558605,22.0
483,1436599558619,22.0
484,1436599558650,23.0
485,1436599558658,24.0
486,1436599558678,24.0
487,1436599558698,25.0
488,1436599558718,25.0
489,1436599558739,28.0
490,1436599558767,28.0
491,1436599558787,30.0
492,1436599558805,30.0
493,1436599558873,32.0
494,1436599558874,32.0
495,1436599558875,33.0
496,1436599558881,33.0
497,1436599558907,35.0
498,1436599558918,35.0
499,1436599558939,35.0
500,1436599558961,35.0
501,1436599558979,35.0
502,1436599558999,35.0
503,1436599559019,35.0
504,1436599559039,35.0
505,1436599559064,35.0
506,1436599559079,36.0
507,1436599559099,36.0
508,1436599559122,36.0
509,1436599559138,36.0
510,1436599559159,36.0
511,1436599559179,36.0
512,1436599559199,36.0
513,1436599559219,35.0
514,1436599559239,35.0
515,1436599559258,33.0
516,1436599559278,33.0
517,1436599559298,33.0
518,1436599559318,33.0
519,1436599559338,32.0
520,1436599559358,32.0
521,1436599559378,31.0
522,1436599559398,31.0
523,1436599559419,31.0
524,1436599559438,31.0
525,1436599559458,31.0
526,1436599559478,31.0
527,1436599559498,32.0
528,1436599559518,32.0
529,1436599559539,32.0
530,1436599559558,32.0
531,1436599559582,32.0
532,1436599559598,32.0
533,1436599559618,32.0
534,1436599559638,32.0
535,1436599559660,32.0
536,1436599559678,33.0
537,1436599559699,33.0
538,1436599559718,34.0
539,1436599559739,34.0
540,1436599559758,34.0
541,1436599559778,36.0
542,1436599559798,36.0
543,1436599559818,38.0
544,1436599559838,38.0
545,1436599559858,41.0
546,1436599559878,41.0
547,1436599559898,44.0
548,1436599559918,44.0
549,1436599559938,46.0
550,1436599559959,46.0
551,1436599559978,48.0
552,1436599559998,48.0
553,1436599560018,50.0
554,1436599560039,50.0
555,1436599560059,50.0
556,1436599560079,50.0
557,1436599560099,50.0
558,1436599560119,50.0
559,1436599560139,50.0
560,1436599560159,50.0
561,1436599560179,50.0
562,1436599560199,51.0
563,1436599560219,51.0
564,1436599560239,51.0
565,1436599560259,51.0
566,1436599560279,51.0
567,1436599560299,51.0
568,1436599560319,51.0
569,1436599560339,49.0
570,1436599560359,49.0
571,1436599560379,47.0
572,1436599560399,47.0
573,1436599560419,46.0
574,1436599560441,46.0
575,1436599560464,44.0
576,1436599560482,44.0
577,1436599560502,43.0
578,1436599560522,43.0
579,1436599560540,42.0
580,1436599560564,42.0
581,1436599560583,42.0
582,1436599560604,42.0
583,1436599560623,42.0
584,1436599560640,43.0
585,1436599560664,43.0
586,1436599560682,43.0
587,1436599560703,43.0
588,1436599560723,43.0
589,1436599560740,43.0
590,1436599560762,44.0
591,1436599560788,44.0
592,1436599560847,45.0
593,1436599560858,45.0
594,1436599560861,45.0
595,1436599560862,45.0
596,1436599560883,46.0
597,1436599560904,47.0
598,1436599560920,47.0
599,1436599560941,49.0
600,1436599560974,49.0
601,1436599560981,51.0
602,1436599561001,51.0
603,1436599561022,55.0
604,1436599561046,55.0
605,1436599561065,58.0
606,1436599561084,58.0
607,1436599561104,60.0
608,1436599561124,60.0
609,1436599561144,62.0
610,1436599561165,62.0
611,1436599561184,63.0
612,1436599561201,64.0
613,1436599561224,64.0
614,1436599561241,63.0
615,1436599561263,63.0
616,1436599561284,63.0
617,1436599561302,63.0
618,1436599561322,62.0
619,1436599561342,62.0
620,1436599561363,62.0
621,1436599561384,62.0
622,1436599561404,63.0
623,1436599561421,63.0
624,1436599561443,63.0
625,1436599561462,63.0
626,1436599561483,63.0
627,1436599561504,62.0
628,1436599561525,62.0
629,1436599561589,60.0
630,1436599561599,60.0
631,1436599561602,58.0
632,1436599561603,58.0
633,1436599561622,57.0
634,1436599561644,57.0
635,1436599561662,55.0
636,1436599561681,55.0
637,1436599561702,55.0
638,1436599561722,55.0
639,1436599561743,55.0
640,1436599561762,55.0
641,1436599561785,55.0
642,1436599561805,56.0
643,1436599561825,56.0
644,1436599561845,56.0
645,1436599561864,56.0
646,1436599561885,55.0
647,1436599561905,55.0
648,1436599561925,55.0
649,1436599561945,55.0
650,1436599561965,55.0
651,1436599562013,55.0
652,1436599562014,55.0
653,1436599562023,55.0
654,1436599562043,56.0
655,1436599562063,57.0
656,1436599562083,57.0
657,1436599562105,58.0
658,1436599562125,58.0
659,1436599562146,59.0
660,1436599562165,59.0
661,1436599562183,60.0
662,1436599562204,60.0
663,1436599562223,61.0
664,1436599562242,61.0
665,1436599562266,63.0
666,1436599562333,63.0
667,1436599562334,67.0
668,1436599562335,70.0
669,1436599562342,70.0
670,1436599562362,73.0
671,1436599562387,73.0
672,1436599562402,76.0
673,1436599562422,76.0
674,1436599562444,78.0
675,1436599562463,78.0
676,1436599562483,80.0
677,1436599562503,80.0
678,1436599562525,81.0
679,1436599562545,81.0
680,1436599562565,83.0
681,1436599562585,83.0
682,1436599562605,85.0
683,1436599562625,87.0
684,1436599562645,87.0
685,1436599562665,88.0
686,1436599562686,88.0
687,1436599562705,88.0
688,1436599562725,88.0
689,1436599562743,86.0
690,1436599562765,86.0
691,1436599562782,84.0
692,1436599562802,84.0
693,1436599562822,82.0
694,1436599562847,82.0
695,1436599562867,80.0
696,1436599562889,80.0
697,1436599562905,80.0
698,1436599562922,82.0
699,1436599562942,82.0
700,1436599562962,85.0
701,1436599562983,85.0
702,1436599563003,88.0
703,1436599563056,88.0
704,1436599563057,91.0
705,1436599563074,91.0
706,1436599563082,94.0
707,1436599563109,94.0
708,1436599563124,97.0
709,1436599563142,97.0
710,1436599563163,103.0
711,1436599563182,108.0
712,1436599563204,108.0
713,1436599563228,114.0
714,1436599563244,114.0
715,1436599563266,118.0
716,1436599563286,118.0
717,1436599563305,121.0
718,1436599563326,121.0
719,1436599563346,124.0
720,1436599563364,124.0
721,1436599563386,129.0
722,1436599563403,129.0
723,1436599563425,136.0
724,1436599563446,136.0
725,1436599563463,142.0
726,1436599563486,147.0
727,1436599563506,147.0
728,1436599563525,153.0
729,1436599563545,153.0
730,1436599563566,156.0
731,1436599563586,156.0
732,1436599563607,158.0
733,1436599563625,158.0
734,1436599563646,159.0
735,1436599563666,159.0
736,1436599563684,162.0
737,1436599563704,162.0
738,1436599563725,164.0
739,1436599563962,166.0
740,1436599563970,166.0
741,1436599563971,166.0
742,1436599563972,166.0
743,1436599563973,164.0
744,1436599563974,164.0
745,1436599563975,160.0
746,1436599563976,160.0
747,1436599563977,159.0
748,1436599563978,159.0
749,1436599563979,160.0
750,1436599563980,160.0
751,1436599564079,162.0
752,1436599564101,162.0
753,1436599564104,165.0
754,1436599564105,170.0
755,1436599564106,170.0
756,1436599564107,174.0
757,1436599564108,174.0
758,1436599564133,175.0
759,1436599564149,175.0
760,1436599564171,176.0
761,1436599564183,176.0
762,1436599564204,178.0
763,1436599564224,178.0
764,1436599564244,180.0
765,1436599564270,180.0
766,1436599564288,182.0
767,1436599564304,181.0
768,1436599564323,181.0
769,1436599564343,180.0
770,1436599564363,180.0
771,1436599564390,178.0
772,1436599564410,178.0
773,1436599564423,175.0
774,1436599564443,175.0
775,1436599564463,175.0
776,1436599564483,175.0
777,1436599564503,179.0
778,1436599564523,179.0
779,1436599564543,181.0
780,1436599564563,181.0
781,1436599564583,184.0
782,1436599564603,186.0
783,1436599564623,186.0
784,1436599564643,188.0
785,1436599564663,188.0
786,1436599564684,190.0
787,1436599564703,190.0
788,1436599564723,190.0
789,1436599564744,190.0
790,1436599564764,189.0
791,1436599564784,189.0
792,1436599564804,188.0
793,1436599564823,188.0
794,1436599564845,185.0
795,1436599564865,183.0
796,1436599564885,183.0
797,1436599564904,181.0
798,1436599564928,181.0
799,1436599564945,178.0
800,1436599564965,178.0
801,1436599564984,175.0
802,1436599565005,175.0
803,1436599565026,172.0
804,1436599565045,172.0
805,1436599565065,171.0
806,1436599565088,171.0
807,1436599565105,168.0
808,1436599565125,168.0
809,1436599565145,165.0
810,1436599565164,164.0
811,1436599565207,164.0
812,1436599565208,165.0
813,1436599565231,165.0
814,1436599565244,165.0
815,1436599565267,165.0
816,1436599565287,166.0
817,1436599565307,166.0
818,1436599565325,165.0
819,1436599565345,165.0
820,1436599565365,164.0
821,1436599565385,164.0
822,1436599565405,162.0
823,1436599565425,162.0
824,1436599565446,162.0
825,1436599565465,163.0
826,1436599565485,163.0
827,1436599565506,164.0
828,1436599565526,164.0
829,1436599565545,164.0
830,1436599565571,164.0
831,1436599565586,164.0
832,1436599565605,164.0
833,1436599565626,165.0
834,1436599565646,165.0
835,1436599565666,167.0
836,1436599565685,167.0
837,1436599565705,173.0
838,1436599565725,183.0
839,1436599565746,183.0
840,1436599565768,191.0
841,1436599565785,191.0
842,1436599565805,200.0
843,1436599565835,200.0
844,1436599565890,211.0
845,1436599565891,211.0
846,1436599565892,223.0
847,1436599565912,223.0
848,1436599565926,234.0
849,1436599565947,234.0
850,1436599565967,241.0
851,1436599565985,241.0
852,1436599566008,246.0
853,1436599566025,250.0
854,1436599566048,250.0
855,1436599566068,254.0
856,1436599566087,254.0
857,1436599566108,258.0
858,1436599566126,258.0
859,1436599566145,262.0
860,1436599566166,262.0
861,1436599566189,263.0
862,1436599566208,263.0
863,1436599566228,260.0
864,1436599566249,260.0
865,1436599566268,252.0
