id,attr_time,attr_db
1,1436599549176,33.2832399359503
2,1436599549807,34.2473183371424
3,1436599550516,35.0442294399113
4,1436599551269,34.1415137005442
5,1436599551842,34.7346334206879
6,1436599552438,34.2471865733967
7,1436599553003,33.2785654274145
8,1436599553562,35.2220798957931
9,1436599554715,47.094902261552
10,1436599555462,47.4482259367316
11,1436599556035,43.7807103952446
12,1436599556643,50.0778078862429
13,1436599557295,45.2532020364301
14,1436599557872,49.3421301901025
15,1436599558429,42.9051463640809
16,1436599559004,47.6602099290233
17,1436599559601,46.4008170301543
18,1436599560339,51.8046459459367
19,1436599561123,41.1388577199811
20,1436599561806,49.761174646491
21,1436599562386,46.9206278872228
22,1436599562928,50.2317492475216
23,1436599563504,43.1464533668697
24,1436599564894,57.7640079410433
25,1436599565543,46.7105245045228
26,1436599566267,49.852371636011
27,1436599567024,43.4488481756443
28,1436599567751,43.3033580137757
29,1436599568364,51.4555054310223
30,1436599569019,55.9952934943551
31,1436599569753,52.4798226237668
32,1436599570492,44.9921356281489
33,1436599571215,44.1724957697042
34,1436599571785,44.9213054117426
35,1436599572356,46.6678027143588
36,1436599572931,46.3580514523413
37,1436599573521,57.6014501387386
38,1436599574207,54.2442023528992
39,1436599574963,42.8087996928671
40,1436599575656,43.7377760729184
41,1436599576254,42.8806801903631
42,1436599576832,51.7482012425949
43,1436599577391,51.582830860369
44,1436599577959,49.4069083084677
45,1436599578560,45.1117793509005
46,1436599579737,45.1923863643339
47,1436599580396,50.121883381507
48,1436599581120,47.9128544541046
49,1436599581871,56.6712500256492
50,1436599582604,51.6897305385117
51,1436599583374,44.5110497042647
52,1436599584140,52.1440789765518
53,1436599584901,57.9777038657274
54,1436599585639,50.7393977169328
55,1436599586413,52.4913779701904
56,1436599587147,50.0564988244399
57,1436599587986,47.1214041492109
58,1436599588720,45.7079831097497
59,1436599589443,49.6975755980439
60,1436599590166,44.5867112043781
61,1436599590840,50.1207943934535
62,1436599591570,46.2534832176951
63,1436599592292,50.3532837005128
64,1436599593145,48.6058317044433
65,1436599593917,46.4042110438828
66,1436599594657,48.7864147836345
67,1436599595623,51.260197548681
68,1436599596237,44.1188344451409
69,1436599596977,42.7442572773055
70,1436599597588,46.6855768710837
71,1436599598265,48.0545670499342
72,1436599599029,47.3109802079928
73,1436599599742,45.7159151509946
74,1436599600469,46.2317863712716
75,1436599601180,49.821570399474
76,1436599601946,45.2775630152143
77,1436599602724,47.4107343754219
78,1436599603405,47.1207190190093
79,1436599604144,47.1745416585467
80,1436599604849,47.9649125373361
81,1436599605572,50.3923944260965
82,1436599606294,42.6943203335986
83,1436599606919,43.3084470923244
84,1436599607592,44.9495457460338
85,1436599608221,47.9863761062011
86,1436599608898,50.5322063594175
87,1436599609631,59.1099081768122
88,1436599610375,48.9943501562847
89,1436599611111,45.6667929720425
90,1436599611789,43.7370605983736
91,1436599612461,49.0857376029028
92,1436599613182,53.3011037341625
93,1436599613944,48.5938941624464
94,1436599614682,54.627013942476
95,1436599615453,60.3308628398025
96,1436599616191,48.9192275306198
97,1436599616879,53.5600641645528
98,1436599617617,46.5895192796683
99,1436599618350,57.9103649022378
100,1436599619066,58.573319833298
101,1436599619790,56.5044784023929
102,1436599620489,49.9534024827531
103,1436599621260,56.6262269491284
104,1436599622007,46.3785305244108
105,1436599622743,50.3711116008828
106,1436599623482,45.8986528426201
107,1436599624271,46.5271940320054
108,1436599624992,46.2818933766314
109,1436599625731,44.7170282401729
110,1436599626382,45.1043508311006
111,1436599627165,47.137721730842
112,1436599627900,56.1446646615207
113,1436599628637,46.3024639017402
114,1436599629370,51.506437257365
115,1436599630132,52.2140190508362
116,1436599630886,49.8917019837991
117,1436599631623,54.0559036218796
118,1436599632400,46.9968709041422
119,1436599633121,45.3347525334427
120,1436599633841,49.538096189986
121,1436599634553,50.6170245744433
122,1436599635323,49.3335859587934
123,1436599636143,48.280763312494
124,1436599636766,50.4101344464442
125,1436599637432,47.0378477203973
126,1436599638280,46.3771214814449
127,1436599638993,51.0194919331834
128,1436599639750,53.3229249816055
129,1436599640499,53.9329789187901
130,1436599641263,53.272755783917
131,1436599641981,44.3936272053661
132,1436599642738,45.3270660623188
133,1436599643477,51.7987719401414
134,1436599644207,41.3144871887148
135,1436599644800,54.6774373157103
136,1436599645456,45.8977710485174
137,1436599646184,53.4946326914023
138,1436599646928,45.7046122973801
139,1436599647669,46.4543638042514
140,1436599648400,61.2563863968739
141,1436599649139,54.9007897653832
142,1436599649789,44.7056440324348
143,1436599650542,54.5530518422216
144,1436599651269,47.1745955489749
145,1436599652022,55.8208761937787
146,1436599652788,57.0802786421214
147,1436599653526,54.8920205730366
148,1436599654251,51.1848355450401
149,1436599654976,47.8824286159873
150,1436599655698,50.8146567858471
151,1436599656357,55.2497963097863
152,1436599657018,45.6211814728007
153,1436599657756,54.4779985646453
154,1436599658474,43.8665066714828
155,1436599659235,44.648716114529
156,1436599659944,47.5677560050695
157,1436599660672,51.8752301642999
158,1436599661389,54.1981480672436
159,1436599662083,50.6018408906981
160,1436599662841,53.0067236817096
161,1436599663574,50.5365686474461
162,1436599664335,55.5483918792633
163,1436599665013,54.8380638747703
164,1436599665700,56.6456032627268
165,1436599666343,43.6504598597406
166,1436599667100,48.0680917917884
167,1436599667834,48.8714684177889
168,1436599668587,44.1119463813877
169,1436599669329,48.6844620919755
170,1436599670067,46.6408097679868
171,1436599670775,56.4034732727723
172,1436599671487,52.3147223871297
173,1436599672212,48.9395070231446
174,1436599672942,50.8597010590135
175,1436599673684,44.7706143049499
176,1436599674425,53.3938832534234
177,1436599675161,45.6902525499766
178,1436599675883,55.2769623125687
179,1436599676543,58.3691027433024
180,1436599677215,51.6592900782908
181,1436599677895,44.4539092904923
182,1436599678633,48.1471764660604
183,1436599679363,50.9627286049375
184,1436599680118,45.8260809614107
185,1436599680692,38.9539905634299
186,1436599681362,68.4069730830857
187,1436599682128,56.3571926238055
188,1436599682868,46.1932364252476
189,1436599683555,56.3867509727398
190,1436599684295,52.0166729171291
191,1436599685031,48.7209261762878
192,1436599685764,48.1876652277704
193,1436599686535,43.2872010598397
194,1436599687184,45.8987123339756
195,1436599687914,47.1098561156602
196,1436599688659,44.629932826806
197,1436599689400,40.5682828567513
198,1436599690160,45.3404195651623
199,1436599690878,41.012820277934
200,1436599691551,41.8670839750455
201,1436599692306,51.6411453934173
202,1436599693046,54.9200461901858
203,1436599693773,43.8121629871368
204,1436599694511,45.1160599631721
205,1436599695241,56.3396157204365
206,1436599695965,49.0778500424449
207,1436599696690,50.2364523982802
208,1436599697274,60.6030990995136
209,1436599697945,55.6987227795685
210,1436599698675,53.5914445125145
211,1436599699400,51.6165595314401
212,1436599700124,43.766949481959
213,1436599700866,58.3532288095164
214,1436599701604,51.6436751596433
215,1436599702421,53.2017448992769
216,1436599703178,52.5495874466353
217,1436599703913,43.5359273490046
218,1436599704654,50.954563990945
219,1436599705391,44.0704655992156
220,1436599706123,53.2023877103044
221,1436599706901,41.4945951401418
222,1436599707593,51.1799842669856
223,1436599708323,50.1204892773224
224,1436599709037,45.5733745936466
225,1436599709786,51.49011819733
226,1436599710530,56.3387519411427
227,1436599711300,54.7564099428332
228,1436599712025,53.2800505255616
229,1436599712779,46.9998677978785
230,1436599713518,47.0100209553131
231,1436599714249,49.521350085067
232,1436599714979,51.058596556331
233,1436599715730,55.958670366469
234,1436599716453,54.311419735064
235,1436599717168,55.9651399145407
236,1436599717763,44.2331449436052
237,1436599718443,49.237475014285
238,1436599719201,54.969872378458
239,1436599719927,49.0803126888317
240,1436599721902,62.3948107051241
241,1436599722631,49.5953514552714
242,1436599723375,40.7873481332453
243,1436599724115,46.761367810359
244,1436599724857,50.3821644276075
245,1436599725582,43.5853574739205
246,1436599726325,49.3240036283153
247,1436599727040,55.8661879900923
248,1436599727697,51.8437205731887
249,1436599728371,45.4718531179447
250,1436599729119,39.4965587736581
251,1436599729839,52.3904297320772
252,1436599730518,44.2638531530625
253,1436599731934,54.2702639248841
254,1436599732690,45.3355623071453
255,1436599733440,56.7741237260486
256,1436599734216,42.7698013835695
257,1436599734942,43.2922044006422
258,1436599735674,37.806003326753
259,1436599736411,53.6963323322266
260,1436599737085,45.1835959734315
261,1436599737656,58.433137217558
262,1436599738321,46.773684395553
263,1436599739063,47.3217305688262
264,1436599739781,49.2466661081852
265,1436599740550,51.470104612647
266,1436599741269,54.0731162015901
267,1436599741925,55.0050049858246
268,1436599742555,49.1057622104169
269,1436599743236,46.4059092675804
270,1436599743967,48.3995394389206
271,1436599744711,46.828421213107
272,1436599745421,46.150520253948
273,1436599747265,52.5077055517981
274,1436599747877,48.3152030199115
275,1436599748563,55.8024179879099
276,1436599749284,42.8980650786079
277,1436599750008,64.5646864187095
278,1436599750749,53.1516642324238
279,1436599751516,44.6590396343246
280,1436599752271,51.5947524793075
281,1436599753079,50.7048001526771
282,1436599753727,56.0041784017349
283,1436599754428,51.3073767590747
284,1436599755769,52.7317130107202
285,1436599756420,47.4281136356022
286,1436599757242,44.9014916930923
287,1436599757928,45.7919326753442
288,1436599758537,47.4965361121778
289,1436599759271,44.6197209214838
290,1436599759994,50.8014355623667
291,1436599760729,45.0802723288767
292,1436599761457,48.5067252365342
293,1436599762233,51.9251392314645
294,1436599762938,49.1286456540595
295,1436599763555,52.177443403193
296,1436599764277,50.5283217755724
297,1436599764960,55.3723650794958
298,1436599765692,50.2955779861987
299,1436599766424,57.4347726127891
300,1436599767275,56.7331234079958
301,1436599768020,47.2211124845773
302,1436599768718,45.7410709585301
303,1436599769346,50.0434386951228
304,1436599770057,54.5155935454588
305,1436599770787,54.4472077687755
306,1436599771525,41.9557404200349
307,1436599772416,46.741502299821
308,1436599773093,50.0028826676703
309,1436599773844,47.5308444432183
310,1436599774589,39.1544341323073
311,1436599775351,41.9158093496304
312,1436599776104,50.1510220059974
313,1436599776844,55.2874850917996
314,1436599777555,51.7695445168828
315,1436599778194,54.4992095314691
316,1436599778871,49.3026317856739
317,1436599779574,45.5408537557236
318,1436599780309,50.6947651358773
319,1436599780989,42.3689603080697
320,1436599781775,49.3566261298387
321,1436599782497,55.0149703272042
322,1436599783219,46.652916583708
323,1436599783877,45.6148903881559
324,1436599784605,53.0331896118441
325,1436599785355,53.6031483715621
326,1436599786088,44.8780732902168
327,1436599786826,56.9700061989862
328,1436599787574,49.5270331393142
329,1436599788313,51.6957788937897
330,1436599789020,48.6739011292148
331,1436599789662,58.4323218321066
332,1436599790355,55.0912625721251
333,1436599791107,36.9134285665072
334,1436599791872,54.2803171344551
335,1436599792615,55.6247888571006
336,1436599793314,48.144072025687
337,1436599794040,49.038476811001
338,1436599794701,46.0749800957059
339,1436599795378,57.5843612857479
340,1436599796116,48.204679355272
341,1436599796900,46.2086029076998
342,1436599797612,50.4201257228717
343,1436599798282,44.5901324088959
344,1436599799015,52.6183967075579
345,1436599799720,47.3270893270506
346,1436599800337,49.999166710151
347,1436599801036,49.3115907321113
348,1436599801780,48.5142973286826
349,1436599802587,52.8250713452427
350,1436599803317,43.732303583027
351,1436599804047,52.6759069660478
352,1436599804720,46.1861336815597
353,1436599805451,49.9414898472599
354,1436599806191,47.6938208778306
355,1436599806968,54.5591894206061
356,1436599807741,44.6094663149481
357,1436599808488,57.9958891645612
358,1436599809220,46.715200160874
359,1436599809961,48.2181402050717
360,1436599810629,44.7746591310202
361,1436599811374,40.092989336719
362,1436599812074,51.9546932511496
363,1436599812770,58.5099384126319
364,1436599813407,53.1841119766442
365,1436599814169,51.1402079152566
366,1436599814904,54.9017053870954
367,1436599815578,46.9952337343885
368,1436599816251,41.7163008437551
369,1436599816857,49.2593298236203
370,1436599817527,49.5012733816717
371,1436599818291,52.3016103699061
372,1436599819028,58.8065273825963
373,1436599819750,58.3552394157202
374,1436599820467,49.8795711486436
375,1436599821190,51.1166481426079
376,1436599822008,48.5635432597421
377,1436599822694,52.1426217292835
378,1436599823226,41.0310823875997
379,1436599823811,53.079158875151
380,1436599824386,45.7819439945206
381,1436599824953,47.7262348909421
382,1436599825537,40.4655250464623
383,1436599826198,41.5076869487119
384,1436599826998,58.3981100916082
385,1436599827827,50.2684469663913
386,1436599828378,44.0550269182601
387,1436599828933,53.4163646604726
388,1436599829501,46.3265905614935
389,1436599831084,59.0446619292772
390,1436599831791,50.954984427885
391,1436599832592,53.1059146081245
392,1436599833361,60.660961574363
393,1436599834039,44.8983323432197
394,1436599834625,57.8451306569859
395,1436599835190,60.1119962224451
396,1436599835741,46.5905254328478
397,1436599836319,38.4639587915386
398,1436599836955,46.591921030685
399,1436599837696,54.3183362746278
400,1436599838462,50.2601080170701
401,1436599839150,50.4328487320023
402,1436599839707,44.2959002139562
403,1436599840293,46.8785487918201
404,1436599840855,44.1685009512818
405,1436599841418,50.9385607238233
406,1436599841998,44.6362075097162
407,1436599843646,54.3694164906509
408,1436599844292,51.8849968822535
409,1436599844950,51.3706515915026
410,1436599845591,45.2426987182077
411,1436599846270,51.9047828408689
412,1436599846900,46.7548079845929
413,1436599847472,47.6484482091559
414,1436599848026,57.3365213520298
415,1436599848595,58.8441501477169
416,1436599849204,48.6464800569611
417,1436599849937,44.8658024399559
418,1436599850544,38.7933302927412
419,1436599851138,40.5106252143538
420,1436599851718,54.5366793918701
421,1436599852273,53.0390942985134
422,1436599852862,42.2235133229984
423,1436599855442,39.463569240333
424,1436599856030,45.7304962605141
425,1436599856730,46.1087424135513
426,1436599857523,43.9907041763065
427,1436599858288,45.9773694506163
428,1436599858965,56.9136129762605
429,1436599859679,51.9642772582687
430,1436599860390,53.974438617263
431,1436599860989,47.6450081591908
432,1436599861752,50.5738661987124
433,1436599862611,52.8873246287022
434,1436599863326,55.3743753429567
435,1436599863995,50.1191601463074
436,1436599864749,52.912875444789
437,1436599865456,46.5624092616565
438,1436599866285,50.794015973311
439,1436599866866,58.9222186166843
440,1436599867536,50.2057736715285
441,1436599868269,51.1918650302462
442,1436599868998,47.6887280428523
443,1436599869739,39.5635221954003
444,1436599870430,45.7190992795381
445,1436599871129,50.3191108767355
446,1436599871735,41.5170972931395
447,1436599872306,41.8920544534953
448,1436599872955,54.5627630903655
449,1436599873695,44.9337422607986
450,1436599874454,57.4437387519536
451,1436599875237,43.7617843285637
452,1436599875965,41.6208623072536
453,1436599876663,53.6407278792867
454,1436599877305,38.369860857136
455,1436599877919,49.2376724799011
456,1436599878695,44.9158657837841
457,1436599879311,47.4873851380817
458,1436599879997,43.5908716894939
459,1436599880740,46.6558692500058
460,1436599881495,45.6424038793068
461,1436599882270,41.4535401848145
462,1436599882939,45.7825445372104
463,1436599883599,40.8990710311483
464,1436599884175,46.3514110429626
465,1436599884796,48.7588526572643
466,1436599885437,55.9752684004779
467,1436599886231,43.1411603711131
468,1436599886944,53.4865525395268
469,1436599887589,49.5096653489507
470,1436599888252,48.3354501802062
471,1436599888949,41.5045174390206
472,1436599889576,51.4395644248463
473,1436599890260,45.9680479789818
474,1436599891000,40.7108809504215
475,1436599891783,49.4052143888376
476,1436599892529,48.4470130384243
477,1436599893237,50.5223666160684
478,1436599893910,41.3376965016562
479,1436599894524,49.1356921767429
480,1436599895128,35.0138162144572
481,1436599896077,48.2922626624353
482,1436599896716,51.9780165515632
483,1436599897334,37.8714476487619
484,1436599897989,56.3897751130725
485,1436599898695,49.0694360838284
486,1436599899346,59.2294401839126
487,1436599900218,45.3199458221127
488,1436599900842,47.801647010246
489,1436599901502,40.8347440969176
490,1436599902379,40.170324728158
491,1436599903033,50.2011556254069
492,1436599903809,43.1651351299364
493,1436599904524,42.0109948761571
494,1436599905153,51.5146343083172
495,1436599905804,51.1620283459634
496,1436599906494,44.6440080895771
497,1436599907170,50.5504278343768
498,1436599907875,45.8869394334462
499,1436599908614,49.5728612502511
500,1436599909352,44.0187596216214
501,1436599910078,60.1551808406726
502,1436599910833,56.5858476803112
503,1436599911518,38.1359250727764
504,1436599913464,41.6642526678073
505,1436599914267,53.6762506132298
506,1436599914957,51.2751095032503
507,1436599915567,55.5897734975503
508,1436599916279,46.8813828901646
509,1436599916884,42.0438215007279
510,1436599917480,43.518851512482
511,1436599918180,39.9836446181477
512,1436599918897,51.8298859602045
513,1436599919652,58.7451836205965
514,1436599920415,50.8749306576982
515,1436599921032,43.7639862446871
516,1436599921840,53.1184075873788
517,1436599922579,51.6396568477486
518,1436599923303,52.303875000325
519,1436599924034,40.4597910310163
520,1436599925981,61.0439484627315
521,1436599926686,41.481250554814
522,1436599927350,59.0385403119215
523,1436599928065,55.8744738833403
524,1436599928797,48.6820456816171
525,1436599929580,52.2114611841159
526,1436599930382,54.7629266204099
527,1436599931053,48.8318686575465
528,1436599931785,60.9741784253637
529,1436599932363,54.8829638597847
530,1436599933048,52.4964007796058
531,1436599933781,55.3571134743078
532,1436599934530,53.1397878661383
533,1436599935326,47.4131746534806
534,1436599935952,56.5136925406266
535,1436599936647,50.3248212573427
536,1436599937293,48.9420864141718
537,1436599937944,52.3979584348033
538,1436599938597,46.3372175750571
539,1436599940367,45.2990618347551
540,1436599940998,45.6938226578606
541,1436599941743,53.5079571982593
542,1436599942454,56.996818168128
543,1436599943121,45.3195567947735
544,1436599943804,55.2441388043353
545,1436599944575,56.1326773664242
546,1436599945379,54.4289034968837
547,1436599946050,47.0735353983414
548,1436599946788,56.3717003185128
549,1436599947453,50.004942252934
550,1436599948210,49.0490375697788
551,1436599948797,44.2853631536547
552,1436599949454,53.3109591471108
553,1436599950195,62.5910887651178
554,1436599950927,52.6202507470718
555,1436599951670,56.1783100090887
556,1436599952286,58.733508983036
557,1436599952954,44.2327890417196
558,1436599953640,48.978538304645
559,1436599954216,44.9208081894007
560,1436599954871,42.5693060944843
561,1436599955625,47.5498151785705
562,1436599956351,57.3618712627371
563,1436599957121,43.2030748855073
564,1436599957802,51.2300433475515
565,1436599958481,49.2351937763563
566,1436599959234,41.5568390307436
567,1436599959855,55.6320051080895
568,1436599960563,55.9644487099946
569,1436599961316,44.7609341564904
570,1436599962064,57.9160736371941
571,1436599962776,60.3283651588407
572,1436599963537,57.8909661472947
573,1436599964294,60.2505323150297
574,1436599964975,61.7479504559468
575,1436599965553,55.7606345039891
