id,attr_time,attr_db
1,1436599549336,35.5884673038095
2,1436599550059,35.0190264641209
3,1436599550793,36.1006721659006
4,1436599551524,35.3958675095997
5,1436599552256,37.135353257664
6,1436599552980,33.5810217760295
7,1436599553674,37.098632687219
8,1436599554295,42.347089899443
9,1436599554935,34.5619257113885
10,1436599555664,38.4257325932456
11,1436599556417,48.0416892717407
12,1436599557079,57.3369207848865
13,1436599557727,73.1402197109575
14,1436599558443,72.3086624410943
15,1436599559118,66.524304968008
16,1436599559849,71.9363452870944
17,1436599560591,71.0053538871476
18,1436599561271,67.2842762264148
19,1436599561942,72.6462796828311
20,1436599562698,66.4714845658721
21,1436599563431,70.4574884393539
22,1436599564147,66.548223353028
23,1436599564779,65.0828480720692
24,1436599565495,72.555928340846
25,1436599566220,72.3442742035664
26,1436599566957,64.8462530963238
27,1436599567693,68.3589929221143
28,1436599568419,65.052490508311
29,1436599569149,71.788896855698
30,1436599569892,70.3918910971673
31,1436599570626,69.7737645699192
32,1436599571350,69.9427870392758
33,1436599572062,71.2360342294141
34,1436599572745,73.6899217566156
35,1436599573522,73.991094734273
36,1436599574244,65.1432642767982
37,1436599574974,69.2538391911404
38,1436599575696,72.6426562016597
39,1436599576282,70.2012964584203
40,1436599576980,70.5171657090519
41,1436599577699,65.647098290498
42,1436599578345,70.7994120203417
43,1436599579062,67.5967911018236
44,1436599579778,70.3963980444885
45,1436599580513,71.2101190261855
46,1436599581268,63.727660875091
47,1436599581982,71.2768557759695
48,1436599582745,70.4311069724176
49,1436599583467,67.9067781909527
50,1436599584209,72.9678369555846
51,1436599584976,69.0160547802011
52,1436599585702,71.5359726878033
53,1436599586464,69.2367405223084
54,1436599587201,69.0066527287818
55,1436599587934,72.9184463012952
56,1436599588654,67.5921094048538
57,1436599589381,73.41899483134
58,1436599590110,70.6041247974364
59,1436599590857,68.4819106774157
60,1436599591600,72.6127231943341
61,1436599592319,67.3625555081547
62,1436599593058,68.6392425044974
63,1436599593784,73.2165170158346
64,1436599594541,66.3810439445299
65,1436599595394,73.3612229755766
66,1436599596064,69.7216713833513
67,1436599596743,71.9275028707438
68,1436599597536,65.5924720638897
69,1436599598282,69.3197806145856
70,1436599599008,69.2961769140036
71,1436599599780,70.9787328504381
72,1436599600519,72.1251040244588
73,1436599601253,67.1646323440588
74,1436599601976,73.6504976063381
75,1436599602718,69.2619788634314
76,1436599603468,63.9020591636002
77,1436599604214,73.3528334695845
78,1436599604936,73.3562516702031
79,1436599605756,68.9641850734628
80,1436599606476,63.0871523240131
81,1436599607210,68.4378775327747
82,1436599607946,63.0346738032439
83,1436599608662,71.5782775790049
84,1436599609413,67.754459234399
85,1436599610148,65.1195572673565
86,1436599610934,71.3228931031882
87,1436599611666,71.5813836704714
88,1436599612403,66.5879724164523
89,1436599613136,68.1559555648971
90,1436599613879,68.5080147444452
91,1436599614640,70.0617416227989
92,1436599615373,73.2189656945646
93,1436599616098,68.6054830121395
94,1436599616815,69.3573787951002
95,1436599617532,63.7437095911728
96,1436599618185,72.9892838994445
97,1436599618857,66.0342080796151
98,1436599619564,72.1203497823728
99,1436599620339,58.3495799191976
100,1436599621056,73.5750796311089
101,1436599621773,64.8702555333601
102,1436599622477,73.2954469253271
103,1436599623203,65.472073514899
104,1436599623948,63.7252541191092
105,1436599624674,70.9599241718086
106,1436599625413,64.263570293821
107,1436599626148,68.3295471074973
108,1436599626863,62.2262442412269
109,1436599627670,69.9880409205694
110,1436599628407,66.1660282974877
111,1436599629135,63.6515699432727
112,1436599629847,69.5025289069595
113,1436599630621,66.8378660395507
114,1436599631360,64.7025400997365
115,1436599632080,68.3603229309279
116,1436599632861,60.5263498741707
117,1436599633565,71.1823840134183
118,1436599634299,67.6574450857869
119,1436599635040,71.3925844297015
120,1436599635766,70.879347139545
121,1436599636542,71.8655529073229
122,1436599637278,67.7611068368803
123,1436599637940,71.2727923059187
124,1436599638541,62.4307781225571
125,1436599639230,72.5353347994774
126,1436599639959,67.7587123354146
127,1436599640682,71.7438835919308
128,1436599641415,63.6360775725796
129,1436599642147,72.9105070265972
130,1436599642876,63.7965994065042
131,1436599643633,64.4110827697536
132,1436599644371,69.0587196763367
133,1436599645096,70.699639672787
134,1436599645836,61.9546404353371
135,1436599646620,64.6310687989307
136,1436599647226,67.0028136504134
137,1436599649156,71.0589509762198
138,1436599649783,66.0175783298321
139,1436599650550,73.0160744349757
140,1436599651288,68.295027856918
141,1436599652013,70.845849785657
142,1436599652679,63.8216002422342
143,1436599653323,71.9982112791845
144,1436599654048,61.8518184466711
145,1436599654763,73.9436989833528
146,1436599655539,65.8286177806338
147,1436599656268,72.1519693244769
148,1436599656983,60.3245473149971
149,1436599657666,74.0179774723314
150,1436599658308,59.2665584452344
151,1436599658986,72.2937019291991
152,1436599659711,66.6040028491685
153,1436599660466,70.8598293893596
154,1436599661273,62.172784481989
155,1436599661990,63.3844861765386
156,1436599662814,69.1699561761615
157,1436599663477,68.1505249983408
158,1436599664209,64.9030769893391
159,1436599664932,70.2923779956894
160,1436599665650,67.5520079150538
161,1436599666367,69.4196705298634
162,1436599667034,60.3765420187002
163,1436599667728,73.0669363112574
164,1436599668414,62.9594334457145
165,1436599669135,72.6295980131058
166,1436599669874,60.8994565619317
167,1436599670692,72.7626014445563
168,1436599671428,58.0515264404038
169,1436599672144,66.4929563102954
170,1436599672881,66.1351949520839
171,1436599673585,66.5722748119165
172,1436599675122,69.8181544392965
173,1436599675858,67.4666782114133
174,1436599676598,65.8574095951721
175,1436599677320,63.9554019472996
176,1436599678089,63.3444134275191
177,1436599678723,72.1694725015981
178,1436599679430,68.3488510352945
179,1436599680147,67.5177664048544
180,1436599680877,61.792338743547
181,1436599681601,64.2275706590201
182,1436599682279,72.3756819726346
183,1436599683029,56.5992997032964
184,1436599683761,72.3084543776183
185,1436599684494,59.4330885038505
186,1436599685233,69.3600971937393
187,1436599685969,68.5583639792894
188,1436599686713,63.6331995533955
189,1436599687458,73.450840932031
190,1436599688195,67.7810571972376
191,1436599688843,59.433283097931
192,1436599689546,68.4150220300346
193,1436599690297,56.8003235600472
194,1436599691026,71.8541545771083
195,1436599691773,60.4554382604253
196,1436599692535,60.0163858470368
197,1436599693256,69.3075905972052
198,1436599693983,69.3838905752335
199,1436599694711,73.0832427276523
200,1436599695444,58.2055409759249
201,1436599696187,66.043835940856
202,1436599696928,69.5115597706518
203,1436599697666,68.993316539579
204,1436599698448,71.4944090265156
205,1436599699031,63.1159071046773
206,1436599699734,70.9709296470524
207,1436599700484,64.6236493068194
208,1436599701183,68.7210305031953
209,1436599701848,71.5877249406931
210,1436599702571,68.8476015368786
211,1436599703292,72.4196228333206
212,1436599704006,62.2491890445871
213,1436599704741,64.178047483779
214,1436599705469,68.5670547469331
215,1436599706214,66.8582632728934
216,1436599706941,71.5213133044306
217,1436599707676,68.3198083690594
218,1436599708398,67.4286259658601
219,1436599709052,71.7804534585965
220,1436599709768,66.2468733646918
221,1436599710587,71.648612344512
222,1436599711253,67.65851343058
223,1436599711947,71.9130217885864
224,1436599712573,71.3988807792912
225,1436599713268,71.061310841593
226,1436599714010,66.9161226206137
227,1436599714755,69.4204849230065
228,1436599715563,69.2950424755418
229,1436599716291,68.3580026967555
230,1436599717024,71.2924113471121
231,1436599717758,68.1740380505968
232,1436599718489,71.302457271648
233,1436599719165,65.2737151967859
234,1436599719779,66.6967447156996
235,1436599720535,71.5434813854403
236,1436599722438,60.3577721201684
237,1436599723119,72.8732136123157
238,1436599723860,66.48091055495
239,1436599724603,73.0605363867889
240,1436599725333,60.9834961085866
241,1436599726073,69.8716407903687
242,1436599726822,69.0493314644154
243,1436599727562,73.2011366784036
244,1436599728293,67.0968831243125
245,1436599728997,67.6732985483853
246,1436599729689,58.1288994719045
247,1436599730425,71.3643412672429
248,1436599731150,70.3851422735801
249,1436599731892,70.2213203379633
250,1436599732638,68.5697187893442
251,1436599733337,55.4868106978258
252,1436599733988,68.3663163694111
253,1436599734723,59.6268500514043
254,1436599735510,62.3798039551388
255,1436599736244,62.2052168877285
256,1436599736983,65.2974177513073
257,1436599737701,64.6958477280702
258,1436599738425,69.648867150761
259,1436599739108,71.6678731489866
260,1436599739712,67.9759679382185
261,1436599740425,69.4225501555645
262,1436599741158,66.4869113931315
263,1436599741934,68.7551601947839
264,1436599742672,67.773076627212
265,1436599743417,55.5317351557124
266,1436599744160,70.9595594131024
267,1436599744903,67.7670628872601
268,1436599745730,65.1837272238401
269,1436599747006,74.2144725180397
270,1436599747746,64.0218168605342
271,1436599748477,69.7557310755381
272,1436599749211,60.8211320758775
273,1436599749913,64.8682513813638
274,1436599750554,65.8327320182872
275,1436599751234,70.061809648436
276,1436599751953,58.8653856877174
277,1436599752677,70.5886658192934
278,1436599753400,62.9009545699029
279,1436599754129,62.8277263201573
280,1436599754870,72.8055917691086
281,1436599755650,60.101925660435
282,1436599756395,72.3193568242124
283,1436599757127,66.2281708906803
284,1436599757871,66.8269338143826
285,1436599758618,71.7919215403653
286,1436599759306,57.1821669360869
287,1436599759953,64.3434347945991
288,1436599760681,68.9167713602156
289,1436599761439,67.5731366825958
290,1436599762162,64.1077148034026
291,1436599762884,71.3768364530328
292,1436599763623,69.6603931426971
293,1436599764342,69.6592338770448
294,1436599765061,63.7778372245329
295,1436599765879,67.9218878925173
296,1436599766610,64.0192901594916
297,1436599767332,63.4757545236861
298,1436599768073,63.7955005093924
299,1436599768808,68.8230684867462
300,1436599769553,61.9949629002468
301,1436599770292,58.8815002651682
302,1436599770914,68.5987334533939
303,1436599771616,72.5562455104982
304,1436599772352,70.6009881244713
305,1436599773090,72.0440286009827
306,1436599773806,66.03716771372
307,1436599774470,65.7815048767836
308,1436599775150,57.0068076309708
309,1436599775828,67.4083636790076
310,1436599776553,64.6916799162944
311,1436599777269,68.0542045615596
312,1436599778007,67.1554698971086
313,1436599778731,73.2630403703184
314,1436599779524,65.1787438873263
315,1436599780161,69.7843461445367
316,1436599780850,57.6330456182854
317,1436599781588,68.6177968909195
318,1436599782316,60.0363301652695
319,1436599783043,75.0831074819654
320,1436599783776,61.0233896852472
321,1436599784437,61.2571968699879
322,1436599785175,60.3701921888154
323,1436599785981,72.5559829131941
324,1436599786704,67.6485021738106
325,1436599787440,67.4343528796909
326,1436599788172,59.0062990219965
327,1436599788917,70.8521357548268
328,1436599789632,63.8897227261835
329,1436599790354,67.8304167635761
330,1436599791043,69.2013897145893
331,1436599791790,67.4354661134165
332,1436599792548,67.3204977428785
333,1436599793247,70.1104452715344
334,1436599793994,68.2299899479106
335,1436599794695,65.9912620242004
336,1436599795491,64.6414142988205
337,1436599796232,72.3225903148908
338,1436599796966,66.5104168115593
339,1436599797707,67.2050048091467
340,1436599798450,68.3827520137199
341,1436599799191,69.945610347869
342,1436599799916,65.9226012239488
343,1436599800648,61.1445453141198
344,1436599801359,66.135930253136
345,1436599802041,69.2671454329432
346,1436599802768,55.6840064532862
347,1436599803489,73.8457942048142
348,1436599804168,71.9617299830786
349,1436599804908,72.4949778908355
350,1436599805642,63.7856395336463
351,1436599806380,73.2677560181198
352,1436599807118,68.9921215697343
353,1436599807856,65.4683447535286
354,1436599808580,65.3391035496002
355,1436599809347,72.6904396803398
356,1436599810091,58.6457721922407
357,1436599810806,65.1123986566029
358,1436599811502,62.2910581143093
359,1436599812150,59.666361400193
360,1436599812798,63.867057154169
361,1436599813503,62.7235056819941
362,1436599814246,64.6236991408192
363,1436599814934,67.7838256025211
364,1436599815682,65.5148541350886
365,1436599816398,68.8685517353531
366,1436599817073,68.9985183481385
367,1436599817795,63.2607635818131
368,1436599818526,69.0652320398943
369,1436599819261,61.9020353291108
370,1436599820002,61.0055926953075
371,1436599820805,53.7270912761457
372,1436599821514,65.9174458047066
373,1436599822128,61.6753319213691
374,1436599822893,67.1920518132862
375,1436599823608,64.2982318782409
376,1436599824411,66.1913899215192
377,1436599825015,67.4037319529121
378,1436599825781,68.9305591135099
379,1436599826501,63.823636608404
380,1436599827219,63.8955227955408
381,1436599827929,65.3987224588234
382,1436599828672,70.6754148163113
383,1436599829387,65.6660111929393
384,1436599830067,65.8005555925156
385,1436599830837,67.9713850824314
386,1436599831579,66.2302064580236
387,1436599832240,71.3286748726343
388,1436599833024,56.3370739280866
389,1436599833738,67.1249857039869
390,1436599834530,63.2434803121866
391,1436599835248,66.1857714025228
392,1436599836007,70.9759701041469
393,1436599836748,67.4091822861322
394,1436599837499,67.9591067422064
395,1436599838223,68.0775777078511
396,1436599838951,63.8313441682719
397,1436599839683,66.4890735964468
398,1436599840421,66.4118678469397
399,1436599841242,71.6757317905573
400,1436599841987,72.0741246507764
401,1436599842626,63.4153923119826
402,1436599843309,64.6857728767428
403,1436599844064,68.5147283479121
404,1436599844817,67.2007654282658
405,1436599845498,63.6576400207091
406,1436599846238,66.0482588153569
407,1436599846977,62.6241053932722
408,1436599847709,72.3741322656962
409,1436599848434,68.1174727215711
410,1436599849161,70.9540891574061
411,1436599849889,56.8492656040029
412,1436599850697,69.2332552525047
413,1436599851435,66.382270908652
414,1436599853629,71.0242094445542
415,1436599854367,64.2135342197378
416,1436599855128,64.2341102282546
417,1436599855704,66.1089730441712
418,1436599856390,68.7306443678103
419,1436599857128,70.1951613017309
420,1436599857858,65.3159062122768
421,1436599858583,65.1588841224949
422,1436599859309,69.22345464608
423,1436599860149,72.4483695530272
424,1436599860894,68.10035012331
425,1436599861640,72.5419657579656
426,1436599862426,56.2146701910435
427,1436599863032,68.2686695062009
428,1436599863765,59.8884022903834
429,1436599864542,66.0607551801058
430,1436599865260,72.9335015114401
431,1436599865986,64.6550114326563
432,1436599866722,71.9229593400178
433,1436599867380,56.6296660645531
434,1436599868090,65.7642724883319
435,1436599868807,55.1216737185484
436,1436599869534,72.1017259592688
437,1436599870274,56.0510584006474
438,1436599870996,71.4889146048299
439,1436599871736,64.2201628932129
440,1436599872429,62.8463406691003
441,1436599873071,72.9423947775889
442,1436599873798,58.4544423576408
443,1436599874543,59.7110316160202
444,1436599875293,62.9374242246397
445,1436599876009,65.6795381756034
446,1436599876725,71.9198300437171
447,1436599877477,60.47614713648
448,1436599878202,72.3595167882554
449,1436599878941,70.3632840335122
450,1436599879657,73.9646308664346
451,1436599880349,68.9969162174157
452,1436599881080,71.6773946187853
453,1436599881794,70.524572250131
454,1436599883607,65.3041851297374
455,1436599884337,66.254082622367
456,1436599885079,71.6632504887363
457,1436599885877,73.7345196111587
458,1436599886641,61.9800086234808
459,1436599887317,65.3080137865364
460,1436599888047,68.9930010290831
461,1436599888774,66.022653136764
462,1436599889514,64.6592678613879
463,1436599890236,63.1915506199504
464,1436599891036,70.2045172014284
465,1436599891772,56.7077825133183
466,1436599892523,70.6530358000433
467,1436599893228,68.3622982981621
468,1436599893853,67.6016509874134
469,1436599894588,69.1304015065277
470,1436599895346,69.0463169363509
471,1436599896065,70.0415880883175
472,1436599896818,68.1120988635827
473,1436599897490,65.1439173861484
474,1436599898212,58.9628324195543
475,1436599898948,70.353709764134
476,1436599899659,58.2981858629782
477,1436599900460,71.1214612507128
478,1436599901190,56.5770617184237
479,1436599901930,66.6802480724221
480,1436599902662,63.1530063910516
481,1436599903362,62.5400755716714
482,1436599903983,68.8432102575091
483,1436599904710,66.3453005712963
484,1436599905470,72.7065218355253
485,1436599906192,67.1087804592777
486,1436599906923,72.8926368897181
487,1436599907638,60.1100866680532
488,1436599908358,73.8817732146701
489,1436599909085,59.6463656459974
490,1436599909817,71.7546734226326
491,1436599910569,60.0200096512369
492,1436599911294,71.8883778064988
493,1436599912041,59.9280320699952
494,1436599912773,69.4764761639581
495,1436599913501,60.9761046437383
496,1436599914185,63.61373294598
497,1436599914938,71.171661815057
498,1436599915669,65.7464400159019
499,1436599916408,71.158394814441
500,1436599917098,65.5893425935684
501,1436599917792,72.3393851384448
502,1436599918548,67.7546418374096
503,1436599919240,64.5478599266133
504,1436599919972,68.6547547025775
505,1436599920710,65.298888300554
506,1436599921460,67.7958874780105
507,1436599922261,67.0076026462056
508,1436599922948,58.1574608192019
509,1436599923521,61.4254518858989
510,1436599924191,68.3879868406576
511,1436599924935,60.2049506200782
512,1436599925659,70.76283929314
513,1436599926389,67.8868657085274
514,1436599927104,70.8469222642559
515,1436599927848,66.0486577778591
516,1436599928635,61.5541530283726
517,1436599929330,61.3712259585134
518,1436599930061,68.6534262516786
519,1436599930802,56.6813517462406
520,1436599931529,73.9905480531835
521,1436599932309,62.5664764850143
522,1436599933104,71.4946679935242
523,1436599933809,67.4983254577336
524,1436599934487,68.3889307487713
525,1436599935204,69.6868791194063
526,1436599935909,70.5762198680979
527,1436599936633,64.3790824077192
528,1436599938639,58.4872118188024
529,1436599939386,68.5630467169081
530,1436599940127,46.2679605655236
531,1436599940759,62.4486939162162
532,1436599941432,66.0062839192977
533,1436599942150,72.0841845269209
534,1436599942871,67.7711998920848
535,1436599943530,66.4301275321005
536,1436599944158,62.9171928756833
537,1436599944838,65.9750764923887
538,1436599945582,53.7377605390104
539,1436599946350,67.7589814392996
540,1436599947026,63.7921340400277
541,1436599947754,61.9722197577464
542,1436599948453,65.8473268240595
543,1436599949151,69.995707741043
544,1436599949877,60.6772797102997
545,1436599950606,69.8746213516002
546,1436599951413,59.5436640882088
547,1436599952165,69.2425584857546
548,1436599952893,61.2134368381322
549,1436599953635,72.1500243487782
550,1436599954332,54.8674565692651
551,1436599954998,69.7551824715778
552,1436599955777,65.5939832624943
553,1436599956518,65.5720836727404
554,1436599957256,69.8382578441941
555,1436599958009,71.8723317827087
556,1436599958753,62.9287013096454
557,1436599959519,61.1080412412607
558,1436599960247,67.6241399784571
559,1436599960964,64.2792666551051
560,1436599961689,60.4316888385734
561,1436599962398,62.6276584906756
562,1436599963115,63.7003711177778
563,1436599963809,66.1582378650127
564,1436599964577,70.172568577057
565,1436599965215,65.0684480180672
566,1436599965902,58.8358736109472
567,1436599967304,68.3948595376974
568,1436599967974,69.3828857209699
569,1436599968701,68.4595184763175
570,1436599969378,63.9915740228586
571,1436599970050,67.0992643140788
572,1436599970842,65.9884268596001
573,1436599971546,66.594343593548
574,1436599972228,62.5553771914366
575,1436599972940,61.0562784077222
