id,attr_time,attr_db
1,1437501408549,55.187062910235
2,1437501409278,65.8281189196734
3,1437501410037,46.5893560570265
4,1437501410781,38.5499677949115
5,1437501411543,4.74464533514498
6,1437501412288,38.5347077596974
7,1437501413029,47.6232155113409
8,1437501413783,52.5162109925371
9,1437501414589,53.3198676957478
10,1437501415275,53.2021910594433
11,1437501416030,59.5609217757298
12,1437501416777,32.5916112151629
13,1437501417531,26.3247855798257
14,1437501418278,37.4662965337041
15,1437501419017,44.1953627139657
16,1437501419723,66.5195585945222
17,1437501420432,54.2456284102336
18,1437501421170,64.7905435908434
19,1437501421898,50.3441877324258
20,1437501422658,57.6707143270424
21,1437501423394,55.8492472198888
22,1437501424109,57.5321216141463
23,1437501424758,48.7276734738946
24,1437501425418,53.2865726971531
25,1437501426155,53.9371491575693
26,1437501426880,52.1769051443022
27,1437501427633,54.101347212829
28,1437501428330,51.2463640671594
29,1437501429019,51.1055638138237
30,1437501429718,58.5491497313925
31,1437501430434,60.5637613771046
32,1437501431175,62.4278180755328
33,1437501431913,66.1166673975563
34,1437501432638,64.8870446083832
35,1437501433316,58.3421710273082
36,1437501434054,59.092547965369
37,1437501434808,58.4003793238991
38,1437501435550,59.6780552337186
39,1437501436284,56.1209953050805
40,1437501437026,54.3175913876112
41,1437501437766,54.3691696664407
42,1437501438528,56.0526820462522
43,1437501439250,58.1899853842747
44,1437501439994,61.4765936437646
45,1437501440759,61.3580071519911
46,1437501441489,63.4644822244373
47,1437501442248,60.9591947908509
48,1437501443055,61.8825608806639
49,1437501443782,61.7974396111963
50,1437501444531,64.3690217694658
51,1437501445259,62.7746059577444
52,1437501445941,57.6447775464725
53,1437501446713,57.7284947296391
54,1437501447445,58.90867508945
55,1437501448153,53.1879073644429
56,1437501448896,50.5433631901495
57,1437501449582,58.8224317115572
58,1437501450325,64.0280616214623
59,1437501451075,66.4413792638946
60,1437501451805,65.9803506891845
61,1437501452576,65.1584785225349
62,1437501453332,63.5264015573029
63,1437501454069,61.4841203554641
64,1437501454807,67.480104781517
65,1437501455553,69.0045329911613
66,1437501456311,59.458659010527
67,1437501457065,56.1302353670632
68,1437501457796,58.1672421442965
69,1437501458534,59.989535882307
70,1437501459263,53.1828991851198
71,1437501460004,53.5741516854958
72,1437501460757,56.5937585041014
73,1437501461491,56.2500457501343
74,1437501462213,59.577064867099
75,1437501462982,59.6368200052203
76,1437501463780,54.1743906593268
77,1437501464523,58.3050598851663
78,1437501466286,65.3969379084935
79,1437501467041,58.4303388061354
80,1437501467785,59.9618962593393
81,1437501468524,58.4939198103898
82,1437501469246,54.4978630977669
83,1437501470001,55.5574875630618
84,1437501470744,53.1714310881358
85,1437501472493,69.0579979933165
86,1437501473138,58.8830843225532
87,1437501473873,55.9945116286998
88,1437501474632,56.2066180755682
89,1437501475337,55.702796374084
90,1437501476063,59.336829600757
91,1437501476792,61.8733167371598
92,1437501477579,65.2799168105879
93,1437501479543,55.3579478540216
94,1437501480170,68.330239170651
95,1437501480884,68.9583778135727
96,1437501481632,71.9476295027089
97,1437501482355,64.1596174353729
98,1437501484097,62.4961042701343
99,1437501484732,66.3417155909763
100,1437501485545,71.9813815833483
101,1437501486113,64.1825547654734
102,1437501486788,56.805388398951
103,1437501487490,60.8238728983559
104,1437501488135,67.9194863284654
105,1437501488817,58.5432674484621
106,1437501489588,59.2861537265338
107,1437501490328,59.6560917487185
108,1437501491075,59.9135107755353
109,1437501491837,60.0552018296193
110,1437501492669,58.3121169883663
111,1437501493408,58.3977865620206
112,1437501494131,56.0986856861738
113,1437501494868,57.686668471716
114,1437501495639,57.209358535423
115,1437501496378,58.7393240322879
116,1437501497117,59.8035329217046
117,1437501497829,57.2020352243921
118,1437501498592,56.4199358732024
119,1437501499324,56.6670677975453
120,1437501500061,54.7632390735239
121,1437501500792,54.3041459090005
122,1437501501555,53.8389009580078
123,1437501502299,54.2222014452766
124,1437501503045,56.6593525393758
125,1437501503775,59.4786256187342
126,1437501504529,61.1637835802846
127,1437501505316,62.8881481226827
128,1437501506083,54.1406140333505
129,1437501506691,66.8011587016158
130,1437501507364,61.0125639683999
131,1437501508049,55.630615840548
132,1437501508686,69.020560026786
133,1437501509404,66.9081624039136
134,1437501510143,65.6622858242007
135,1437501510887,64.9532064137718
136,1437501511659,67.4351400388965
137,1437501512396,60.5472943299976
138,1437501513120,56.2265230006757
139,1437501513836,59.4208914361601
140,1437501514596,57.7977400261433
141,1437501515292,62.0473013846166
142,1437501515894,62.6753376016146
143,1437501516523,63.0985828554029
144,1437501517162,57.0187364872653
145,1437501517870,60.3939198751949
146,1437501518604,60.5447590309835
147,1437501519218,72.0068104687068
148,1437501519940,56.3411831313847
149,1437501520716,57.17448502916
150,1437501521471,61.4616820359985
151,1437501522216,54.6712580061132
152,1437501522992,59.5339542252675
153,1437501523746,57.3499125397264
154,1437501524469,59.5416132759278
155,1437501525219,59.7769853704317
156,1437501525949,60.6011369672634
157,1437501526702,59.2320812418846
158,1437501527399,53.5651210084829
159,1437501528184,53.5084753526644
160,1437501528919,57.7023204012545
161,1437501529737,60.6453716740619
162,1437501530459,56.6272323826895
163,1437501531215,57.6354647307069
164,1437501531944,54.9730130954799
165,1437501532706,55.3852226491909
166,1437501533428,54.8472519978586
167,1437501534165,57.4910020156577
168,1437501534900,58.6054700837996
169,1437501535677,55.1192156664154
170,1437501536362,58.3266323408311
171,1437501537091,66.1207200639814
172,1437501537830,66.0176274270982
173,1437501538680,56.328224192445
174,1437501539406,58.6310380214699
175,1437501540173,60.6552329454092
176,1437501540923,57.6731455185351
177,1437501541714,58.6780942881181
178,1437501542448,60.7074810573441
179,1437501543227,60.2250249844961
180,1437501543962,59.6130803791415
181,1437501544733,58.9317975346857
182,1437501545478,57.9244373002223
183,1437501546203,61.7507079873154
184,1437501546848,64.5810662124691
185,1437501547528,64.3863825163184
186,1437501548257,60.6798378971976
187,1437501549000,58.4459519316405
188,1437501549771,58.8225775705844
189,1437501550502,59.6875431578689
190,1437501551232,54.9374707248807
191,1437501551985,55.1791683592978
192,1437501552756,56.3294504280924
193,1437501553497,55.4838176972422
194,1437501554225,60.6649209835783
195,1437501554972,60.4647879115235
196,1437501555746,57.0032092647061
197,1437501556481,60.432180476326
198,1437501557223,61.7362423996517
199,1437501557983,59.1136073663827
200,1437501558815,55.7614919230284
201,1437501559547,58.879040300067
202,1437501560268,57.6917683779544
203,1437501561021,64.3532908071617
204,1437501561786,59.9929410013329
205,1437501562530,60.8229041924054
206,1437501563327,66.4151009324331
207,1437501564069,56.4880719161202
208,1437501564905,61.524762317074
209,1437501565531,57.6478315017825
210,1437501566164,66.5405525042504
211,1437501566875,59.1320540013228
212,1437501567666,62.5587325751666
213,1437501568224,51.8318582807084
214,1437501568780,64.3150045694279
215,1437501569323,55.5676177551259
216,1437501569875,56.7645647220183
217,1437501570482,53.1217452434722
218,1437501571173,58.0655014934771
219,1437501571921,62.0774629842783
220,1437501572648,56.1267948068745
221,1437501573261,61.069728281486
222,1437501573825,62.0566162493135
223,1437501574375,54.6500879585554
224,1437501574938,56.1211832521174
225,1437501576725,62.1679371611773
226,1437501577464,54.001386308858
227,1437501578294,58.7422842448109
228,1437501579123,69.9485173026622
229,1437501579869,58.150517679496
230,1437501580454,55.0925322352987
231,1437501580996,51.421959579724
232,1437501581558,58.2175134643988
233,1437501582137,61.0588984716808
234,1437501582723,54.1913712302154
235,1437501583399,53.3977694845969
236,1437501584080,53.3952370440844
237,1437501584641,61.325085173824
238,1437501585197,58.8498712788972
239,1437501585763,53.0840031015893
240,1437501586314,57.61715359714
241,1437501586863,59.5793666923277
242,1437501588349,56.5059994843311
243,1437501589098,54.4598001922498
244,1437501589945,59.9412698422375
245,1437501590781,60.4206864448462
246,1437501591475,64.0830001663894
247,1437501592043,61.6921842842003
248,1437501592589,55.2623314463319
249,1437501593143,54.7371259868119
250,1437501593716,58.5116937889003
251,1437501594436,55.8004188952368
252,1437501595186,52.2616161782117
253,1437501595969,59.0176368851859
254,1437501596550,62.2368285984887
255,1437501597095,58.1587072953196
256,1437501597650,61.4466633607175
257,1437501598239,58.7739780297351
258,1437501599386,54.2238639893096
259,1437501600132,54.6912828134775
260,1437501600811,58.2414707068155
261,1437501601478,65.4834685189046
262,1437501602159,61.9413796998585
263,1437501602896,59.8498229145842
264,1437501603644,61.5434178494069
265,1437501604383,65.2829964149187
266,1437501605115,58.4341766755522
267,1437501605867,56.8778735632467
268,1437501606609,54.4213504053493
269,1437501607194,65.1147634192949
270,1437501607854,59.1638883877125
271,1437501608589,52.9836012083989
272,1437501609330,53.7845566868189
273,1437501610073,56.2546616877699
274,1437501610811,56.4276745390956
275,1437501611560,57.9162153839119
276,1437501612299,60.3872744952277
277,1437501613079,58.2572153419211
278,1437501613800,61.3228505809573
279,1437501614544,67.2490511486917
280,1437501615298,66.4695467080104
281,1437501616063,68.577117659633
282,1437501616805,65.0845140265467
283,1437501617608,65.9591261576317
284,1437501618327,64.3267455750968
285,1437501619068,62.7714742651788
286,1437501619813,58.1566669314724
287,1437501620558,59.0404976999749
288,1437501621298,60.8083550270806
289,1437501622047,59.8530448330806
290,1437501622773,57.4247288609482
291,1437501623503,54.9681339736368
292,1437501624232,55.3571684275279
293,1437501624974,59.7441580917025
294,1437501625756,60.6119332953344
295,1437501626517,60.7591907197663
296,1437501627197,71.8809666060637
297,1437501627876,60.2036148117204
298,1437501628658,59.6289983349127
299,1437501629427,60.6908889835478
300,1437501630163,59.491440282361
301,1437501630898,56.9365997285958
302,1437501631670,55.3809271762396
303,1437501632397,54.8417090919945
304,1437501633156,56.0295035684258
305,1437501633893,57.9218264380426
306,1437501634650,59.0529537541078
307,1437501635334,64.7577656474965
308,1437501636077,59.9543762988163
309,1437501636829,60.1996609173492
310,1437501637666,60.9218266716797
311,1437501638385,59.1556986918469
312,1437501639117,61.5246723981145
313,1437501639843,60.9958395660604
314,1437501640603,57.0242854669753
315,1437501641339,54.3809274576654
316,1437501642086,55.7986130994457
317,1437501642840,55.8348818993373
318,1437501643594,59.8004935110439
319,1437501644345,60.9132127375155
320,1437501645079,63.1509486945355
321,1437501645811,72.4974269380398
322,1437501646568,70.4936706033322
323,1437501647269,62.6202586392098
324,1437501648026,60.1411796162883
325,1437501648795,61.0850428032806
326,1437501649557,54.4037932360469
327,1437501650280,58.1713865170494
328,1437501651021,61.8625237216726
329,1437501651774,59.5789315023127
330,1437501652529,57.9374266981312
331,1437501653259,55.6063115248012
332,1437501654010,54.6682193739381
333,1437501654782,54.2786508349473
334,1437501655511,55.252353266783
335,1437501656229,60.3804793020593
336,1437501657048,55.6071469876768
337,1437501657846,61.4447361938046
338,1437501658598,54.6634701599235
339,1437501659316,61.9412942960883
340,1437501660071,56.9849621563765
341,1437501660785,64.9852945339009
342,1437501661697,53.6825593900981
343,1437501662357,62.2254301345588
344,1437501663102,62.1658381606609
345,1437501663828,64.1606058750551
346,1437501664569,66.2555501472378
347,1437501665316,60.6417931621608
348,1437501666056,60.4405386545711
349,1437501666746,62.2980600399958
350,1437501667368,62.4843444726259
351,1437501668112,66.4917353177589
352,1437501668777,64.509228762575
353,1437501670386,67.3434940509484
354,1437501671086,57.5053726568402
355,1437501671838,58.7134407341285
356,1437501672598,54.1098397908426
357,1437501673337,59.8987302391344
358,1437501674091,61.1444788422383
359,1437501674829,60.3800450336698
360,1437501675588,61.1596553782641
361,1437501676313,57.5164445496659
362,1437501677041,57.2493256413474
363,1437501677806,54.8391206826807
364,1437501678649,60.1726927801477
365,1437501680719,63.2073190157998
366,1437501681433,61.471390983499
367,1437501682159,60.1169798501721
368,1437501682900,59.7467982673231
369,1437501683720,61.9774350936235
370,1437501684432,60.0726793242452
371,1437501685165,62.188868029323
372,1437501685902,57.7807379311633
373,1437501686678,59.96246619489
374,1437501687444,59.6655928146691
375,1437501688122,57.1692304589805
376,1437501688846,64.8309214583401
377,1437501689588,69.7004347913753
378,1437501690329,67.0743579640891
379,1437501691033,66.3654989231475
380,1437501691665,59.3509705032047
381,1437501692358,56.7798890515879
382,1437501693112,57.3418669434932
383,1437501693892,55.3432387955419
384,1437501695826,54.0968133995229
385,1437501696626,60.5654238437312
386,1437501697354,57.5444959887388
387,1437501698167,58.0423851268215
388,1437501698899,55.8327474975975
389,1437501699688,57.3531189462795
390,1437501700424,56.2313570813943
391,1437501701152,54.509920776602
392,1437501701833,63.9852830469588
393,1437501702582,59.7737057638145
394,1437501704170,60.0115785747196
395,1437501704835,66.3417174747456
396,1437501705614,64.3686181482267
397,1437501706349,61.8872134761034
398,1437501707087,54.6346809377256
399,1437501707813,61.6535672501435
400,1437501708576,59.6674223382283
401,1437501709308,57.2312795784252
402,1437501710082,58.9866187420668
403,1437501710823,54.0307435943431
404,1437501711562,51.3290448426064
405,1437501712298,56.33151904039
406,1437501713075,54.4239141073146
407,1437501713817,57.5295104715704
408,1437501714566,55.7878973777961
409,1437501715301,61.7524931143276
410,1437501716045,69.2598519538351
411,1437501716805,68.3606315713075
412,1437501717554,67.0749568141644
413,1437501718320,63.5787129215555
414,1437501719058,63.9324306388351
415,1437501719795,60.7599890723357
416,1437501720542,61.0133970246894
417,1437501721277,59.2392343996547
418,1437501722041,59.9985052232261
419,1437501722665,55.3866703958336
420,1437501723245,57.5908017450382
421,1437501723845,52.5785054404593
422,1437501724449,66.4126249793903
423,1437501725044,57.5141256537612
424,1437501725653,69.7893825425864
425,1437501726376,55.8995606992233
426,1437501727106,66.1785352654929
427,1437501727724,60.2804707727338
428,1437501728285,63.0223911521849
429,1437501728855,54.9337074769289
430,1437501729405,63.2992972482624
431,1437501731235,63.0752767443576
432,1437501731983,55.4339209126337
433,1437501732757,59.2680132683821
434,1437501733483,56.3974284057753
435,1437501734199,57.0666570017
436,1437501734757,60.8705871440494
437,1437501735314,57.0709357596561
438,1437501735863,59.9344889878765
439,1437501736443,63.2021893052911
440,1437501737145,59.8804424249459
441,1437501737928,68.7179569153212
442,1437501738510,60.8846766520653
443,1437501739084,64.7455785747293
444,1437501739661,59.6808790872697
445,1437501740237,63.0808757001213
446,1437501740813,58.8570827545407
447,1437501743979,60.7049365731028
448,1437501744677,59.0118264375813
449,1437501745292,50.4706833445575
450,1437501745882,66.8094866426838
451,1437501746459,56.4137683143948
452,1437501747028,66.4739201696442
453,1437501747610,54.8167737678254
454,1437501748194,69.3087724545608
455,1437501748890,57.7295547570862
456,1437501749498,54.4895447628738
457,1437501750059,64.8173193056186
458,1437501750614,55.83346867275
459,1437501751163,58.5539530135619
460,1437501751735,58.3077520424432
461,1437501752319,54.2809114384244
462,1437501752920,55.1181778527899
463,1437501754673,58.796902685519
464,1437501755372,60.5933309106862
465,1437501756104,58.148188560437
466,1437501756830,53.4124678927697
467,1437501757558,54.6509187880161
468,1437501758380,57.2963364807892
469,1437501759136,53.243889393887
470,1437501759877,53.7673837430432
471,1437501760642,55.2774734763768
472,1437501761376,54.7807929945011
473,1437501762110,59.2715737467355
474,1437501762872,63.3177267550159
475,1437501763634,61.9993249206606
476,1437501764362,64.5831241185162
477,1437501765107,62.7778762305471
478,1437501765824,60.862998649036
479,1437501766568,59.6367336902694
480,1437501767312,59.3856889609092
481,1437501768046,60.8609355882839
482,1437501768677,57.6791434557775
483,1437501769372,69.140693593064
484,1437501770125,67.1316905881752
485,1437501770887,65.7122658556541
486,1437501771638,66.9055019619603
487,1437501772384,66.2869461468128
488,1437501773027,60.0525433501545
489,1437501773729,53.6761531594282
490,1437501774472,55.359689055026
491,1437501775207,57.8035211353338
492,1437501775932,65.8686208450529
493,1437501776691,59.312584632751
494,1437501777412,62.6566403730457
495,1437501778130,65.8773466190948
496,1437501778792,60.035245484518
497,1437501779544,57.1887990841358
498,1437501780289,57.2726133155914
499,1437501781033,58.2792482867879
500,1437501781774,57.9763043446185
501,1437501782559,54.9716410470902
502,1437501783208,65.8471601199842
503,1437501783953,65.2271101518273
504,1437501784724,66.1032997096232
505,1437501785478,67.5447965603709
506,1437501786210,57.3258821939297
507,1437501786950,58.682718950923
508,1437501787714,57.0582404889829
509,1437501788539,66.1166109513932
510,1437501789156,59.6541633871968
511,1437501789866,52.5103903563176
512,1437501790629,54.6328163099021
513,1437501791364,55.1161901717453
514,1437501792108,59.2418533141766
515,1437501792835,62.4949530811808
516,1437501793643,53.3953340891374
517,1437501794319,64.0818466484778
518,1437501795066,64.3932824317598
519,1437501795829,68.081728466052
520,1437501796584,67.4956060907716
521,1437501797312,64.728114828476
522,1437501798078,63.3971093926192
523,1437501798802,61.0295846993441
524,1437501799560,59.4367680791444
525,1437501800284,61.1725572975625
526,1437501801028,59.5642819131083
527,1437501801761,59.2163176687158
528,1437501802486,57.9147946321551
529,1437501803226,57.2255101231333
530,1437501803975,54.5115455568037
531,1437501804753,55.8364374000659
532,1437501805504,53.5579769617531
533,1437501806251,58.0482855156189
534,1437501806984,59.5614565746534
535,1437501807755,57.8813939041174
536,1437501808557,58.9577404577932
537,1437501809252,59.7424603356983
538,1437501810016,62.3483708444285
539,1437501810780,63.6974660316124
540,1437501811502,66.3214005399603
541,1437501812248,67.0680746240609
542,1437501812992,65.4500873140853
543,1437501813609,58.0156066505077
544,1437501814249,56.1431459539486
545,1437501814998,58.838790256362
546,1437501815762,55.026331148942
547,1437501816509,57.876688185604
548,1437501817251,62.2577285858569
549,1437501818086,64.3652470551247
550,1437501818806,56.8418296172931
551,1437501819545,64.7811557115312
552,1437501820276,60.576849090941
553,1437501821021,65.1385710436678
554,1437501821765,68.1355179919219
555,1437501822492,64.3005353783224
556,1437501823237,61.7813296397313
557,1437501823977,57.3722608377014
558,1437501824735,59.5273766515587
559,1437501825472,59.9368339441589
560,1437501826200,61.046698615441
561,1437501826901,58.7399711212071
562,1437501827713,60.0983406163843
563,1437501828446,58.4177593881273
564,1437501829127,57.3082405614777
565,1437501829835,68.1817288565136
566,1437501830585,67.609020436626
567,1437501831316,60.6835756332622
568,1437501832058,56.6122367682095
569,1437501832853,56.2856492570177
570,1437501833604,61.4972200387155
571,1437501834341,56.1262253942085
572,1437501835080,57.9024505963015
573,1437501835823,60.5485136806406
574,1437501836578,56.6367831357427
575,1437501837321,60.9365279086492
