id,attr_time,attr_db
1,1437501408065,39.6817151361664
2,1437501408815,59.5022049394513
3,1437501409534,45.1552107818178
4,1437501410273,58.1984770698454
5,1437501411051,52.4053396749631
6,1437501411795,59.0533888128104
7,1437501412504,70.0318128475922
8,1437501413246,69.3530606483711
9,1437501413978,64.9713470686902
10,1437501414692,61.0069657944277
11,1437501415420,67.6963355742519
12,1437501416224,61.5824128300992
13,1437501416986,64.0913657937279
14,1437501417712,60.9747064200801
15,1437501418443,56.5277882630458
16,1437501419181,65.6520494167322
17,1437501419936,67.8240575887379
18,1437501420668,64.6577966183089
19,1437501421297,58.2562074212921
20,1437501421942,67.2111594868108
21,1437501422592,70.9975408876071
22,1437501423298,68.5899314876464
23,1437501424031,60.5036293122596
24,1437501424774,66.3106173957984
25,1437501425498,57.6702677536404
26,1437501426250,58.0107598993157
27,1437501426969,56.048801361146
28,1437501427643,65.5039686575756
29,1437501428349,69.2006568386087
30,1437501429078,65.7216357807342
31,1437501429815,64.2986116426847
32,1437501431825,69.2805219056753
33,1437501432540,71.532831498294
34,1437501433277,72.1270109922776
35,1437501433999,72.8415813110537
36,1437501434714,68.0409938686962
37,1437501435443,65.0113437966457
38,1437501436256,59.9719754901918
39,1437501436914,65.2344568497157
40,1437501438194,62.019881048823
41,1437501438957,64.2425402214711
42,1437501439689,58.7372568565928
43,1437501440418,68.1658243093889
44,1437501441133,71.287329120077
45,1437501441963,64.0539351507032
46,1437501442661,71.8549418282408
47,1437501443385,67.8902783357733
48,1437501445068,58.4052741054262
49,1437501445809,65.6419623449058
50,1437501446535,65.8300181535603
51,1437501447272,69.7605925135457
52,1437501448008,66.0002637831812
53,1437501449934,57.5978719116272
54,1437501450605,69.312145569069
55,1437501451396,68.7015107435056
56,1437501452097,69.4507940467568
57,1437501452852,72.1977339092066
58,1437501453571,68.187675891923
59,1437501454323,59.8567854309432
60,1437501455050,68.3075143510897
61,1437501455724,71.4563520388238
62,1437501456475,70.4126970920824
63,1437501457213,67.8051152094053
64,1437501457980,69.1292139025637
65,1437501458687,63.8532060289033
66,1437501459415,64.2215785606978
67,1437501460140,69.3097240227841
68,1437501460926,69.877966092509
69,1437501461680,68.2956868824164
70,1437501462397,70.8914366792756
71,1437501463106,72.7162609675834
72,1437501463866,73.1349479072969
73,1437501464589,68.454938679646
74,1437501465317,63.7123818785259
75,1437501466031,60.3947576432399
76,1437501466706,56.3735142156652
77,1437501467430,67.024625822384
78,1437501468152,69.4536423907498
79,1437501468901,71.6598048842042
80,1437501469615,62.3647170012478
81,1437501470349,63.0330255221039
82,1437501471068,67.2718532436478
83,1437501471743,63.6639441605322
84,1437501472475,65.1575961731862
85,1437501473211,65.2680089648335
86,1437501473966,66.5554854002937
87,1437501474696,69.8726707909754
88,1437501475423,69.3800544803758
89,1437501476138,67.3035807974253
90,1437501476874,65.5098642814903
91,1437501477601,64.7658918078781
92,1437501478317,62.4364080883519
93,1437501479042,59.2360437623832
94,1437501480210,56.5650768046045
95,1437501480905,60.924251950252
96,1437501481611,73.5958779299403
97,1437501482331,72.4173893270017
98,1437501483012,68.6470467893428
99,1437501483732,65.8622296190208
100,1437501484453,64.0893919330248
101,1437501485199,55.4442129862598
102,1437501486048,63.7524424013599
103,1437501486774,63.6614974793122
104,1437501487507,62.8930599376336
105,1437501488247,56.1766814572206
106,1437501488989,57.6038398309334
107,1437501489730,60.3534062363451
108,1437501490444,55.9743272590427
109,1437501491163,57.8788731701138
110,1437501491870,55.3936198475508
111,1437501492562,70.7283664527222
112,1437501493283,63.7051110703124
113,1437501494007,64.4194220003524
114,1437501494743,54.0341103592831
115,1437501495456,69.1737393786766
116,1437501496220,70.6502887446552
117,1437501496974,67.2252481456404
118,1437501497697,71.3192001567679
119,1437501498436,69.6437681106928
120,1437501499138,62.5419805703007
121,1437501499897,65.8757330166991
122,1437501500691,68.5413521354385
123,1437501501413,62.7112064608211
124,1437501502134,65.6433912404511
125,1437501502894,66.8448229865352
126,1437501503613,65.874341180036
127,1437501504336,74.4524605942745
128,1437501505056,70.4040910494656
129,1437501505838,68.0294475932014
130,1437501506565,71.0455170188176
131,1437501507280,65.4838458484795
132,1437501508007,64.6821097398872
133,1437501508739,61.0153047979376
134,1437501509487,60.6174987883839
135,1437501510216,60.1009593014639
136,1437501510963,61.343751283579
137,1437501511675,59.0235383749013
138,1437501512346,67.307957307739
139,1437501513049,71.5210653689271
140,1437501513776,61.4492416187408
141,1437501514501,60.3477828078949
142,1437501515251,59.548955168923
143,1437501516007,65.0633231076447
144,1437501516755,67.0045642294703
145,1437501517480,70.9196011083412
146,1437501518200,69.1264024472238
147,1437501518923,68.7381401882681
148,1437501519598,64.4274828681023
149,1437501520308,70.5828229152508
150,1437501521048,70.371671809373
151,1437501521768,71.7566601101669
152,1437501522492,69.7322387105042
153,1437501523235,65.8170548490958
154,1437501523984,69.632427091275
155,1437501524714,63.1591286148546
156,1437501525450,61.444763133246
157,1437501526173,60.8841426983454
158,1437501526816,58.0126154280686
159,1437501527492,65.5319362117664
160,1437501528234,64.2723595415752
161,1437501528974,65.7336609082868
162,1437501529706,62.3581985872664
163,1437501530421,68.5933700818743
164,1437501531219,65.7710219053021
165,1437501531913,64.2914014143946
166,1437501532574,66.9533849760806
167,1437501533300,63.2874591112955
168,1437501534036,65.2371597118325
169,1437501534763,67.6676671519598
170,1437501535488,64.4307202198288
171,1437501536223,73.4401841387551
172,1437501536983,69.3008404257122
173,1437501537719,68.6789261647464
174,1437501538439,70.270110867061
175,1437501539158,66.5144572499779
176,1437501539917,66.6559343633658
177,1437501540639,71.0314177048397
178,1437501541367,67.86549128839
179,1437501542094,62.8649059609561
180,1437501542877,61.5623039981947
181,1437501543604,60.2986588067546
182,1437501544329,60.9755701284908
183,1437501545050,63.0571552087077
184,1437501545788,57.7929561042522
185,1437501546514,54.1967240069297
186,1437501547243,57.1410549377517
187,1437501547972,60.8941729243703
188,1437501548711,65.5894048941868
189,1437501549440,66.1371518447308
190,1437501550129,71.9760301979677
191,1437501550807,70.4539434659795
192,1437501551529,71.7655084681909
193,1437501552242,69.3293709956646
194,1437501552963,60.9429983995891
195,1437501553708,66.2219647006887
196,1437501554445,66.3482600518048
197,1437501555209,63.7280273190376
198,1437501555964,64.2829690522449
199,1437501556778,65.3442114367163
200,1437501557518,62.4518951729333
201,1437501558266,66.1346508432128
202,1437501558980,66.5903443638713
203,1437501559710,66.6688153595125
204,1437501560444,73.3462806740838
205,1437501561227,71.2628490751689
206,1437501561964,70.435896353477
207,1437501562696,70.9606783491716
208,1437501563413,67.6006387401077
209,1437501564143,66.5108222830306
210,1437501564893,67.1668546088863
211,1437501565642,69.6060078729077
212,1437501566344,64.1982727399219
213,1437501567066,60.4786689474975
214,1437501567809,61.8531664301142
215,1437501568526,62.2441691564567
216,1437501569263,56.5998407589898
217,1437501569964,58.4290715386651
218,1437501570680,64.1152893711914
219,1437501571401,63.3316659828449
220,1437501572120,70.6825371833129
221,1437501572862,68.1626544473673
222,1437501573566,61.3931675370892
223,1437501574297,62.8072259255539
224,1437501575024,68.3551595817701
225,1437501575750,70.2415408196548
226,1437501576479,71.2283352655251
227,1437501577216,69.5971817815974
228,1437501577946,66.3921802386804
229,1437501578677,65.4412784661567
230,1437501579399,64.4942571348705
231,1437501580118,66.7426539186335
232,1437501580878,67.1574681784381
233,1437501581587,70.0867641801696
234,1437501582280,71.908828383204
235,1437501582953,58.7614091918649
236,1437501583681,60.5565870351478
237,1437501584398,58.885135586244
238,1437501585109,55.6920330330516
239,1437501585874,57.1497643433516
240,1437501586746,60.5054170941135
241,1437501587463,62.6339686553194
242,1437501588145,56.6227095929741
243,1437501588914,58.8976434624819
244,1437501589649,62.9833537167212
245,1437501590391,63.1353119116842
246,1437501591161,68.6812837053814
247,1437501591902,59.4218163697835
248,1437501592608,68.2570939918047
249,1437501593341,71.015799646286
250,1437501594068,61.5925882913523
251,1437501594821,64.2220287241539
252,1437501595548,66.1921354470262
253,1437501596270,70.8111184998668
254,1437501596997,71.065810871992
255,1437501597736,68.5805493883977
256,1437501598461,63.8333474893024
257,1437501599192,65.3050895916446
258,1437501599952,64.6842781077796
259,1437501600683,66.6710809106705
260,1437501601400,68.324271923778
261,1437501602121,71.6782703465066
262,1437501602893,68.933345135086
263,1437501603596,71.1406048256271
264,1437501604341,64.7674545112981
265,1437501605072,64.0974127697632
266,1437501605819,61.7001830758403
267,1437501606527,59.0971730044718
268,1437501607299,64.0916753548783
269,1437501608032,58.0010291830832
270,1437501608772,56.7529053475523
271,1437501609486,64.2735679371984
272,1437501610211,66.6876900689298
273,1437501610968,71.4525903461879
274,1437501611683,72.0089210898668
275,1437501612462,68.7029386798552
276,1437501613081,69.0673836162354
277,1437501613785,68.6960763928095
278,1437501614520,63.9733155292391
279,1437501615249,66.5194630208918
280,1437501615992,62.6845788034604
281,1437501616732,68.2246472457044
282,1437501617537,66.1962234386052
283,1437501618255,69.3793292083993
284,1437501618977,70.8541712015417
285,1437501619702,69.7836060299601
286,1437501620423,68.8348982633286
287,1437501621148,62.8057093459411
288,1437501621935,64.9415891590868
289,1437501622659,59.3582029016666
290,1437501623382,58.9895970758846
291,1437501624118,57.7522790691202
292,1437501624846,57.3018693047396
293,1437501625572,61.8741648315226
294,1437501626294,68.3406973371132
295,1437501627030,66.3451155247467
296,1437501627768,64.2197216690766
297,1437501628507,67.4194142875733
298,1437501629247,68.914187180653
299,1437501629970,70.4769044123302
300,1437501630716,60.4644270499
301,1437501631469,63.1237413171341
302,1437501632253,65.2405015997196
303,1437501632980,65.6251346614228
304,1437501633711,68.50024710102
305,1437501634398,71.3519964629019
306,1437501635890,64.2146951955053
307,1437501636665,66.8184135578754
308,1437501637397,62.427627267135
309,1437501638112,57.8831518120719
310,1437501638870,58.7402130867794
311,1437501639578,59.5028329165417
312,1437501640259,66.1495139136934
313,1437501640996,69.8791768237108
314,1437501641700,66.6468897008346
315,1437501642424,66.7992423160956
316,1437501643038,62.0185011679293
317,1437501643748,68.0116522838349
318,1437501644419,70.9909647935903
319,1437501646231,69.7460281994809
320,1437501646935,62.5282260368896
321,1437501647674,64.6755960060951
322,1437501648422,68.9994957658754
323,1437501649152,68.7877642665597
324,1437501649906,68.2984220057748
325,1437501650629,68.4799961694013
326,1437501651372,70.9165626400852
327,1437501652111,68.1946768731926
328,1437501652867,67.3800245837647
329,1437501653590,63.4470535784754
330,1437501654298,61.5986820412585
331,1437501655025,66.2065851035086
332,1437501655759,58.1759103392452
333,1437501656499,65.9175589800227
334,1437501657233,66.2413287668277
335,1437501657955,69.1239199060943
336,1437501658704,71.0607218011782
337,1437501659418,64.1146542314089
338,1437501661413,69.3094119773167
339,1437501662140,69.090448421497
340,1437501662875,62.9822469503977
341,1437501663594,65.3748131234669
342,1437501664309,62.7907132999889
343,1437501665037,58.817958906686
344,1437501665764,52.7233921706857
345,1437501666486,62.7306152897397
346,1437501667288,65.4061022293862
347,1437501668031,60.2731885430752
348,1437501668719,60.8895598680436
349,1437501670126,66.5632250411555
350,1437501670878,68.4221932058616
351,1437501671615,68.8758747201029
352,1437501672367,70.890740525247
353,1437501673158,66.4433543080007
354,1437501673880,70.6488888946025
355,1437501674607,66.560305226922
356,1437501675328,64.5220310201435
357,1437501676049,67.405161080528
358,1437501676767,67.5283529278241
359,1437501677504,72.8242858249646
360,1437501678245,68.6567905947721
361,1437501678975,65.7492253241969
362,1437501679689,67.800569498447
363,1437501680426,59.8478978192818
364,1437501681172,61.013116561749
365,1437501681918,57.7968229094173
366,1437501682637,54.5421167200194
367,1437501683359,58.9756629401983
368,1437501684077,60.0702328173259
369,1437501684814,70.824288529509
370,1437501685547,69.7259811716896
371,1437501686277,63.0394806328554
372,1437501687007,66.1955240926103
373,1437501687744,62.6650944067738
374,1437501688465,71.2591958554558
375,1437501689223,66.3592262768381
376,1437501689972,65.7263310805211
377,1437501690716,65.3823060138928
378,1437501691445,63.1596922010539
379,1437501692153,66.6624629723473
380,1437501693003,67.6378047876443
381,1437501693715,63.7545486153725
382,1437501694434,66.8406229044998
383,1437501695152,68.4583632502711
384,1437501695908,70.5759728951716
385,1437501696605,66.5383442729761
386,1437501697324,70.0574951216627
387,1437501698085,67.5028944388202
388,1437501698816,65.6359763500488
389,1437501699488,58.4040983701966
390,1437501700229,55.6947651777332
391,1437501700983,59.0121562694374
392,1437501701736,59.392943455649
393,1437501702512,68.399808752927
394,1437501703277,59.8860499796479
395,1437501704037,62.5067805248314
396,1437501704760,63.9090330825541
397,1437501705487,70.5744799596301
398,1437501706321,69.0153313009417
399,1437501707026,71.7315262690943
400,1437501707862,61.7086751672694
401,1437501708609,64.1688438850139
402,1437501709333,68.419024412404
403,1437501710064,65.8855024039016
404,1437501710835,65.5636329704963
405,1437501711557,65.0905674111386
406,1437501712288,66.7756977698733
407,1437501713099,64.2241032513173
408,1437501713853,67.6632427321404
409,1437501714564,71.8939861259735
410,1437501715281,67.9962929411782
411,1437501716009,63.599929802383
412,1437501716762,63.5024107119726
413,1437501717551,63.882071147162
414,1437501718278,67.7675207485629
415,1437501718981,70.2192035597831
416,1437501719724,71.6044855584473
417,1437501720442,70.3768730004171
418,1437501721163,68.2209165007591
419,1437501721925,65.6518586001891
420,1437501722618,63.705823726962
421,1437501723277,59.0463050385755
422,1437501724021,60.3690642415406
423,1437501724749,66.8416445391023
424,1437501725459,61.6752280303866
425,1437501726191,64.5855754333222
426,1437501726954,64.1391875872161
427,1437501727715,65.4254758209344
428,1437501728439,63.7133499237051
429,1437501729188,62.0726077854478
430,1437501729850,60.6980856948829
431,1437501730558,68.3442534972885
432,1437501731273,71.8392371860991
433,1437501732006,69.4377026629583
434,1437501732734,69.3795865159912
435,1437501733514,69.4954242336661
436,1437501734187,61.3366572804497
437,1437501734934,59.3631845089123
438,1437501735637,57.1627122037806
439,1437501736367,61.6909935068762
440,1437501737158,57.0564259081044
441,1437501737874,60.0833610296816
442,1437501738532,62.4102846471838
443,1437501739267,61.8579555455352
444,1437501739996,66.0157969491334
445,1437501740720,65.6231652104614
446,1437501741435,67.0888786201925
447,1437501742127,63.3530858226045
448,1437501742825,70.3413174835795
449,1437501743545,71.1282359048522
450,1437501744271,67.7907718158866
451,1437501745027,68.3910845608144
452,1437501745776,67.8656035816041
453,1437501746502,66.2474931782453
454,1437501747301,68.8477519089366
455,1437501748046,67.1345265546427
456,1437501748793,65.870928892914
457,1437501749498,62.2619959224472
458,1437501750213,60.0296288482154
459,1437501750974,61.1408147483879
460,1437501751758,58.1501139711383
461,1437501752499,61.9026101102887
462,1437501753251,59.2835815707639
463,1437501753974,54.6974419264193
464,1437501754692,66.5531414505745
465,1437501755428,68.8156152761519
466,1437501756155,71.2714529551449
467,1437501756912,65.9517956711992
468,1437501757645,71.0513713858556
469,1437501758367,66.0556314522726
470,1437501759110,65.2317917270716
471,1437501759874,66.1631430578935
472,1437501760589,61.2434676419851
473,1437501761289,68.737296218877
474,1437501762020,63.198027973122
475,1437501762737,63.9537400801094
476,1437501763487,68.7384847083044
477,1437501764234,68.1852647768519
478,1437501764984,68.722865467434
479,1437501765722,72.6146014804845
480,1437501766466,66.7367938959897
481,1437501767200,66.244433783504
482,1437501767964,70.7438700665162
483,1437501768691,64.7774458894006
484,1437501769422,61.7865327705163
485,1437501770174,58.4112991491644
486,1437501770943,59.8906800934586
487,1437501771679,58.1293905238284
488,1437501772406,52.8368064769385
489,1437501773213,58.509734620595
490,1437501773941,54.4476761746644
491,1437501774678,60.2971523269866
492,1437501775397,66.2802436821915
493,1437501776132,65.0178417514598
494,1437501776934,66.241892363607
495,1437501777647,69.0181913848321
496,1437501778369,61.4027312789531
497,1437501779109,66.4238243415425
498,1437501779862,61.1013552186761
499,1437501781058,70.4728201615195
500,1437501781684,58.6735882412356
501,1437501782411,58.1519561131497
502,1437501783143,62.8660012788534
503,1437501783903,64.2172161098151
504,1437501784598,68.851496414052
505,1437501785261,63.4968269769473
506,1437501786004,64.3810949493577
507,1437501786741,70.0725955394543
508,1437501787497,65.7797608681417
509,1437501788238,69.4610853249864
510,1437501788977,62.6167712232234
511,1437501789699,64.7645708005438
512,1437501790409,68.335541899462
513,1437501791165,68.0654093722177
514,1437501791912,69.2122741721272
515,1437501792693,67.1274558636108
516,1437501793450,71.6131665739169
517,1437501794109,68.3953918596245
518,1437501794793,63.6807193863077
519,1437501795521,61.5753275857246
520,1437501796284,59.5835835043332
521,1437501797068,59.760762923697
522,1437501797804,62.1916377023742
523,1437501798526,61.4737243407541
524,1437501799258,52.1768486994369
525,1437501799983,55.2782774715594
526,1437501800729,64.501722755935
527,1437501801440,67.9633936339643
528,1437501802214,69.6030318126388
529,1437501802968,63.0701658697324
530,1437501803703,70.0784003449711
531,1437501804424,66.6928798558269
532,1437501805147,63.382234848077
533,1437501805895,61.4250948784294
534,1437501806621,67.8887823667378
535,1437501807402,67.3547985369792
536,1437501808119,62.7762142751541
537,1437501808853,67.6515050836684
538,1437501809596,70.0621733838616
539,1437501810305,63.1920883814644
540,1437501811025,67.4156353754845
541,1437501811752,65.8224386059035
542,1437501812493,68.4148824344793
543,1437501813234,72.5149499346093
544,1437501813964,66.762668591327
545,1437501814666,66.9477055456563
546,1437501815350,63.5560638932391
547,1437501816006,58.2338814567208
548,1437501816738,63.4229325948898
549,1437501817492,69.8726258674935
550,1437501818226,71.2526755065864
551,1437501818969,69.1952268376525
552,1437501819684,65.6860026966834
553,1437501820410,64.3841240745434
554,1437501821140,60.8035941140894
555,1437501821882,61.303515458094
556,1437501822612,68.8012843156086
557,1437501823332,68.3417782655135
558,1437501824047,65.6529029607224
559,1437501824730,67.7166690368572
560,1437501825452,67.6879410105906
561,1437501826183,69.8913998116451
562,1437501826927,69.9111721367031
563,1437501827666,69.1085655421514
564,1437501828397,65.6815288993806
565,1437501829131,63.1081832898682
566,1437501829899,63.6657095783214
567,1437501830628,63.6125081453712
568,1437501831336,51.0045121742203
569,1437501832061,62.9312818526791
570,1437501832807,62.6052119446132
571,1437501833537,70.0085097206356
572,1437501834274,69.903337373402
573,1437501835004,62.4900834927139
574,1437501835747,64.0011062146827
575,1437501836481,64.0428284029953
