id,attr_time,attr_x,attr_y,attr_z
1,1436796648021,-14.225,-47.817,-3.044
2,1436796648042,-14.225,-47.817,-3.044
3,1436796648061,-14.225,-47.817,-3.044
4,1436796648082,-14.225,-47.817,-3.044
5,1436796648105,-14.225,-47.817,-3.044
6,1436796648121,-14.225,-47.817,-3.044
7,1436796648141,-14.225,-47.817,-3.044
8,1436796648162,-14.225,-47.817,-3.044
9,1436796648184,-14.225,-47.817,-3.044
10,1436796648206,-14.225,-47.817,-3.044
11,1436796648226,-14.225,-47.817,-3.044
12,1436796648246,-14.225,-47.817,-3.044
13,1436796648264,-14.225,-47.817,-3.044
14,1436796648286,-14.225,-47.817,-3.044
15,1436796648303,-14.225,-47.817,-3.044
16,1436796648325,-14.225,-47.817,-3.044
17,1436796648346,-14.225,-47.817,-3.044
18,1436796648366,-14.225,-47.817,-3.044
19,1436796648386,-14.225,-47.817,-3.044
20,1436796648406,-14.225,-47.817,-3.044
21,1436796648425,-14.225,-47.817,-3.044
22,1436796648445,-14.225,-47.817,-3.044
23,1436796648465,-14.225,-47.817,-3.044
24,1436796648483,-14.225,-47.817,-3.044
25,1436796648506,-14.225,-47.817,-3.044
26,1436796648525,-14.225,-47.817,-3.044
27,1436796648544,-14.225,-47.817,-3.044
28,1436796648566,-14.225,-47.817,-3.044
29,1436796648585,-14.225,-47.817,-3.044
30,1436796648612,-14.225,-47.817,-3.044
31,1436796648626,-14.225,-47.817,-3.044
32,1436796648644,-14.225,-47.817,-3.044
33,1436796648666,-14.225,-47.817,-3.044
34,1436796648683,-14.225,-47.817,-3.044
35,1436796648703,-14.225,-47.817,-3.044
36,1436796648723,-14.225,-47.817,-3.044
37,1436796648745,-14.225,-47.817,-3.044
38,1436796648766,-14.225,-47.817,-3.044
39,1436796648784,-14.225,-47.817,-3.044
40,1436796648806,-14.225,-47.817,-3.044
41,1436796648823,-14.225,-47.817,-3.044
42,1436796648846,-14.225,-47.817,-3.044
43,1436796648866,-14.225,-47.817,-3.044
44,1436796648886,-14.225,-47.817,-3.044
45,1436796648906,-14.225,-47.817,-3.044
46,1436796648926,-14.225,-47.817,-3.044
47,1436796648946,-14.225,-47.817,-3.044
48,1436796648966,-14.225,-47.817,-3.044
49,1436796648983,-14.225,-47.817,-3.044
50,1436796649004,-14.225,-47.817,-3.044
51,1436796649024,-14.225,-47.817,-3.044
52,1436796649046,-14.225,-47.817,-3.044
53,1436796649068,-14.225,-47.817,-3.044
54,1436796649085,-14.225,-47.817,-3.044
55,1436796649103,-14.225,-47.817,-3.044
56,1436796649126,-14.225,-47.817,-3.044
57,1436796649146,-13.9,-47.817,-3.044
58,1436796649168,-13.9,-47.817,-3.044
59,1436796649197,-13.9,-47.817,-3.044
60,1436796649236,-13.9,-47.817,-3.044
61,1436796649237,-13.9,-47.817,-3.044
62,1436796649243,-13.9,-47.817,-3.044
63,1436796649263,-13.9,-47.817,-3.044
64,1436796649283,-13.9,-47.817,-3.044
65,1436796649315,-13.9,-47.817,-3.044
66,1436796649325,-13.9,-47.817,-3.044
67,1436796649343,-13.9,-47.817,-3.044
68,1436796649364,-13.9,-47.817,-3.044
69,1436796649383,-13.9,-47.817,-3.044
70,1436796649404,-13.9,-47.817,-3.044
71,1436796649424,-13.9,-47.817,-3.044
72,1436796649470,-13.9,-47.817,-3.044
73,1436796649471,-13.9,-47.817,-3.044
74,1436796649489,-13.9,-47.817,-3.044
75,1436796649504,-13.9,-47.817,-3.044
76,1436796649525,-13.9,-47.817,-3.044
77,1436796649544,-13.9,-47.817,-3.044
78,1436796649564,-13.9,-47.817,-3.044
79,1436796649583,-13.9,-47.817,-3.044
80,1436796649604,-13.9,-47.817,-3.044
81,1436796649625,-13.9,-47.817,-3.044
82,1436796649644,-13.9,-47.817,-3.044
83,1436796649665,-13.9,-47.817,-3.044
84,1436796649683,-13.9,-47.817,-3.044
85,1436796649705,-13.9,-47.817,-3.044
86,1436796649724,-13.9,-47.817,-3.044
87,1436796649743,-13.9,-47.817,-3.044
88,1436796649765,-13.9,-47.817,-3.044
89,1436796649788,-13.9,-47.817,-3.044
90,1436796649805,-13.9,-47.817,-3.044
91,1436796649827,-13.9,-47.817,-3.044
92,1436796649845,-13.9,-47.817,-3.044
93,1436796649864,-13.9,-47.817,-3.044
94,1436796649885,-13.9,-47.817,-3.044
95,1436796649904,-13.9,-47.817,-3.044
96,1436796649929,-13.9,-47.817,-3.044
97,1436796649947,-13.9,-47.817,-3.044
98,1436796649967,-13.9,-47.817,-3.044
99,1436796649984,-13.9,-47.817,-3.044
100,1436796650004,-13.9,-47.817,-3.044
101,1436796650024,-13.9,-47.817,-3.044
102,1436796650043,-13.9,-47.817,-3.044
103,1436796650063,-13.9,-47.817,-3.044
104,1436796650085,-13.9,-47.817,-3.044
105,1436796650104,-13.9,-47.817,-3.044
106,1436796650124,-13.9,-47.817,-3.044
107,1436796650148,-13.9,-47.817,-3.044
108,1436796650168,-13.9,-47.817,-3.044
109,1436796650188,-13.9,-47.817,-3.044
110,1436796650205,-13.9,-47.817,-3.044
111,1436796650228,-13.9,-47.817,-3.044
112,1436796650247,-13.9,-47.817,-3.044
113,1436796650267,-13.9,-47.817,-3.044
114,1436796650287,-13.9,-47.817,-3.044
115,1436796650307,-13.9,-47.817,-3.044
116,1436796650327,-13.9,-47.817,-3.044
117,1436796650347,-13.9,-47.817,-3.044
118,1436796650366,-13.9,-47.817,-3.044
119,1436796650387,-13.9,-47.817,-3.044
120,1436796650406,-13.9,-47.817,-3.044
121,1436796650427,-13.9,-47.817,-3.044
122,1436796650447,-13.9,-47.817,-3.044
123,1436796650468,-13.9,-47.817,-3.044
124,1436796650487,-13.9,-47.817,-3.044
125,1436796650511,-13.9,-47.817,-3.044
126,1436796650527,-13.9,-47.817,-3.044
127,1436796650545,-13.9,-47.817,-3.044
128,1436796650566,-13.9,-47.817,-3.044
129,1436796650586,-13.9,-47.817,-3.044
130,1436796650606,-13.9,-47.817,-3.044
131,1436796650628,-13.9,-47.817,-3.044
132,1436796650691,-13.9,-47.817,-3.044
133,1436796650692,-13.9,-47.817,-3.044
134,1436796650693,-13.9,-47.817,-3.044
135,1436796650705,-13.9,-47.817,-3.044
136,1436796650729,-13.9,-47.817,-3.044
137,1436796650761,-14.219,-47.817,-3.044
138,1436796650766,-14.219,-47.817,-3.044
139,1436796650785,-14.219,-47.817,-3.044
140,1436796650813,-14.219,-47.817,-3.044
141,1436796650830,-14.219,-47.817,-3.044
142,1436796650846,-14.219,-47.817,-3.044
143,1436796650868,-14.219,-47.817,-3.044
144,1436796650885,-14.219,-47.817,-3.044
145,1436796650907,-14.219,-47.817,-3.044
146,1436796650930,-14.219,-47.817,-3.044
147,1436796650949,-14.219,-47.817,-3.044
148,1436796650968,-14.219,-47.817,-3.044
149,1436796650988,-14.219,-47.817,-3.044
150,1436796651008,-14.219,-47.817,-3.044
151,1436796651028,-14.219,-47.817,-3.044
152,1436796651046,-14.219,-47.817,-3.044
153,1436796651068,-14.219,-47.817,-3.044
154,1436796651088,-14.219,-47.817,-3.044
155,1436796651107,-14.219,-47.817,-3.044
156,1436796651127,-14.219,-47.817,-3.044
157,1436796651147,-14.219,-47.817,-3.044
158,1436796651168,-14.219,-47.817,-3.044
159,1436796651189,-14.219,-47.817,-3.044
160,1436796651209,-14.219,-47.817,-3.044
161,1436796651228,-14.219,-47.817,-3.044
162,1436796651247,-14.219,-47.817,-3.044
163,1436796651267,-14.219,-47.817,-3.044
164,1436796651287,-14.219,-47.817,-3.044
165,1436796651306,-14.219,-47.817,-3.044
166,1436796651329,-14.219,-47.817,-3.044
167,1436796651392,-14.219,-47.817,-3.044
168,1436796651393,-14.219,-47.817,-3.044
169,1436796651394,-14.219,-47.817,-3.044
170,1436796651405,-14.219,-47.817,-3.044
171,1436796651428,-14.219,-47.817,-3.044
172,1436796651445,-14.219,-47.817,-3.044
173,1436796651465,-14.219,-47.817,-3.044
174,1436796651486,-14.219,-47.817,-3.044
175,1436796651506,-14.219,-47.817,-3.044
176,1436796651589,-14.219,-47.817,-3.044
177,1436796651590,-14.219,-47.817,-3.044
178,1436796651591,-14.219,-47.817,-3.044
179,1436796651592,-14.219,-47.817,-3.044
180,1436796651615,-14.219,-47.817,-3.044
181,1436796651630,-14.219,-47.817,-3.044
182,1436796651649,-14.219,-47.817,-3.044
183,1436796651669,-14.219,-47.817,-3.044
184,1436796651689,-14.219,-47.817,-3.044
185,1436796651709,-14.219,-47.817,-3.044
186,1436796651729,-14.219,-47.817,-3.044
187,1436796651750,-14.219,-47.817,-3.044
188,1436796651772,-14.219,-47.817,-3.044
189,1436796651786,-14.219,-47.817,-3.044
190,1436796651806,-14.219,-47.817,-3.044
191,1436796651835,-14.219,-47.817,-3.044
192,1436796651852,-14.219,-47.817,-2.731
193,1436796651873,-14.219,-47.817,-2.731
194,1436796651892,-14.219,-47.817,-2.731
195,1436796651906,-14.219,-47.817,-2.731
196,1436796651928,-14.219,-47.817,-2.731
197,1436796651946,-14.219,-47.817,-2.731
198,1436796651966,-14.219,-47.817,-2.731
199,1436796651986,-14.219,-47.817,-2.731
200,1436796652012,-14.219,-47.817,-2.731
201,1436796652032,-14.219,-47.817,-2.731
202,1436796652053,-14.219,-47.817,-2.731
203,1436796652069,-14.219,-47.817,-2.731
204,1436796652092,-14.219,-47.817,-2.731
205,1436796652159,-14.219,-47.817,-2.731
206,1436796652160,-14.219,-47.817,-2.731
207,1436796652161,-14.219,-47.817,-2.731
208,1436796652171,-14.219,-47.817,-2.731
209,1436796652186,-14.219,-47.817,-2.731
210,1436796652208,-14.219,-47.817,-2.731
211,1436796652227,-14.219,-47.817,-2.731
212,1436796652247,-14.219,-47.817,-2.731
213,1436796652266,-14.219,-47.817,-2.731
214,1436796652289,-14.219,-47.817,-2.731
215,1436796652307,-14.219,-47.817,-2.731
216,1436796652329,-14.219,-47.817,-2.731
217,1436796652349,-14.219,-47.817,-2.731
218,1436796652369,-14.219,-47.817,-2.731
219,1436796652387,-14.219,-47.817,-2.731
220,1436796652409,-14.219,-47.817,-2.731
221,1436796652429,-14.219,-47.817,-2.731
222,1436796652450,-14.219,-47.817,-2.731
223,1436796652469,-14.219,-47.817,-2.731
224,1436796652488,-14.219,-47.817,-2.731
225,1436796652510,-14.219,-47.817,-2.731
226,1436796652531,-14.219,-47.817,-2.731
227,1436796652547,-14.219,-47.817,-2.731
228,1436796652570,-14.219,-47.817,-2.731
229,1436796652588,-14.219,-47.817,-2.731
230,1436796652607,-14.219,-47.817,-2.731
231,1436796652627,-14.219,-47.817,-2.731
232,1436796652651,-14.219,-47.817,-2.731
233,1436796652683,-14.219,-47.817,-2.731
234,1436796652686,-14.219,-47.817,-2.731
235,1436796652710,-14.219,-47.817,-2.731
236,1436796652726,-14.219,-47.817,-2.731
237,1436796652747,-14.219,-47.817,-2.731
238,1436796652767,-14.219,-47.817,-2.731
239,1436796652789,-14.219,-47.817,-2.731
240,1436796652814,-14.219,-47.817,-2.731
241,1436796652922,-14.219,-47.817,-2.731
242,1436796652934,-14.219,-47.817,-2.731
243,1436796652935,-14.219,-47.817,-2.731
244,1436796652936,-14.219,-47.817,-2.731
245,1436796652937,-14.219,-47.817,-2.731
246,1436796652938,-14.219,-47.817,-2.731
247,1436796652947,-14.219,-47.817,-2.731
248,1436796652967,-14.219,-47.817,-2.731
249,1436796652987,-14.219,-47.817,-2.731
250,1436796653008,-14.219,-47.817,-2.731
251,1436796653027,-14.219,-47.817,-2.731
252,1436796653051,-14.219,-47.817,-2.731
253,1436796653071,-14.219,-47.817,-2.731
254,1436796653087,-14.219,-47.817,-2.731
255,1436796653109,-14.219,-47.817,-2.731
256,1436796653130,-14.219,-47.817,-2.731
257,1436796653150,-14.219,-47.817,-2.731
258,1436796653170,-14.219,-47.817,-2.731
259,1436796653190,-14.219,-47.817,-2.731
260,1436796653208,-14.219,-47.817,-2.731
261,1436796653230,-14.219,-47.817,-2.731
262,1436796653250,-14.219,-47.817,-2.731
263,1436796653270,-14.219,-47.817,-2.731
264,1436796653290,-14.219,-47.817,-2.731
265,1436796653308,-14.219,-47.817,-2.731
266,1436796653330,-14.219,-47.817,-2.731
267,1436796653348,-14.219,-47.817,-2.731
268,1436796653368,-14.219,-47.817,-2.731
269,1436796653389,-14.219,-47.817,-2.731
270,1436796653407,-14.219,-47.817,-2.731
271,1436796653430,-14.219,-47.817,-2.731
272,1436796653449,-14.219,-47.817,-2.731
273,1436796653470,-14.219,-47.817,-2.731
274,1436796653492,-14.219,-47.817,-2.731
275,1436796653510,-14.219,-47.817,-2.731
276,1436796653529,-14.219,-47.817,-2.731
277,1436796653550,-14.219,-47.817,-2.731
278,1436796653572,-14.219,-47.817,-2.731
279,1436796653637,-14.219,-47.817,-2.731
280,1436796653655,-14.219,-47.817,-2.731
281,1436796653656,-14.219,-47.817,-2.731
282,1436796653657,-14.219,-47.817,-2.731
283,1436796653685,-14.219,-47.817,-2.731
284,1436796653689,-14.219,-47.817,-2.731
285,1436796653710,-14.219,-47.817,-2.731
286,1436796653750,-14.219,-47.817,-2.731
287,1436796653751,-14.219,-47.817,-2.731
288,1436796653768,-14.219,-47.817,-2.731
289,1436796653789,-14.219,-47.817,-2.731
290,1436796653816,-14.219,-47.817,-2.731
291,1436796653828,-14.219,-47.817,-2.731
292,1436796653850,-14.219,-47.817,-2.731
293,1436796653869,-14.219,-47.817,-2.731
294,1436796653890,-14.219,-47.817,-2.731
295,1436796653908,-14.219,-47.508,-2.731
296,1436796653928,-14.219,-47.508,-2.731
297,1436796653950,-14.219,-47.508,-2.731
298,1436796653971,-14.219,-47.508,-2.731
299,1436796653991,-14.219,-47.508,-2.731
300,1436796654011,-14.219,-47.508,-2.731
301,1436796654031,-14.219,-47.508,-3.031
302,1436796654049,-14.219,-47.508,-3.031
303,1436796654071,-14.219,-47.508,-3.031
304,1436796654089,-14.219,-47.508,-3.031
305,1436796654109,-14.219,-47.508,-3.031
306,1436796654128,-14.219,-47.508,-3.031
307,1436796654152,-14.219,-47.508,-3.031
308,1436796654172,-14.219,-47.846,-3.031
309,1436796654192,-14.219,-47.846,-3.031
310,1436796654209,-14.219,-47.846,-3.031
311,1436796654229,-14.219,-47.846,-3.031
312,1436796654248,-13.908,-47.846,-3.031
313,1436796654270,-13.908,-47.846,-3.031
314,1436796654289,-13.908,-47.846,-3.031
315,1436796654311,-13.908,-47.846,-3.031
316,1436796654360,-13.908,-47.846,-3.031
317,1436796654361,-13.908,-47.846,-3.031
318,1436796654370,-13.908,-47.846,-3.031
319,1436796654388,-13.908,-47.846,-3.031
320,1436796654408,-13.908,-47.846,-3.031
321,1436796654428,-13.908,-47.846,-3.031
322,1436796654448,-13.908,-47.846,-3.031
323,1436796654468,-13.908,-47.846,-3.031
324,1436796654489,-13.908,-47.846,-3.031
325,1436796654509,-13.908,-47.846,-3.031
326,1436796654529,-13.908,-47.846,-3.031
327,1436796654549,-13.908,-47.846,-3.031
328,1436796654569,-13.908,-47.846,-3.031
329,1436796654592,-13.908,-47.846,-3.031
330,1436796654611,-13.908,-47.846,-3.031
331,1436796654629,-13.908,-47.846,-3.031
332,1436796654649,-13.908,-47.846,-3.031
333,1436796654670,-13.908,-47.846,-3.031
334,1436796654692,-13.908,-47.846,-3.031
335,1436796654712,-13.908,-47.846,-3.031
336,1436796654729,-13.908,-47.846,-3.031
337,1436796654750,-13.908,-47.846,-3.031
338,1436796654771,-13.908,-47.846,-3.031
339,1436796654789,-13.908,-47.846,-3.031
340,1436796654813,-13.908,-47.846,-3.031
341,1436796654829,-13.908,-47.846,-3.031
342,1436796654851,-13.908,-47.846,-3.031
343,1436796654876,-13.908,-47.846,-3.031
344,1436796654893,-13.908,-47.846,-3.031
345,1436796654908,-13.908,-47.846,-3.031
346,1436796654941,-13.908,-47.846,-3.031
347,1436796654989,-13.908,-47.846,-3.031
348,1436796654990,-13.908,-47.846,-3.031
349,1436796654991,-13.908,-47.846,-3.031
350,1436796655011,-13.908,-47.846,-3.031
351,1436796655029,-13.908,-47.846,-3.031
352,1436796655080,-13.908,-47.846,-3.335
353,1436796655081,-13.908,-47.846,-3.335
354,1436796655092,-13.908,-47.846,-3.335
355,1436796655112,-13.908,-47.846,-3.335
356,1436796655129,-13.908,-47.846,-3.335
357,1436796655149,-13.908,-47.846,-3.335
358,1436796655169,-13.908,-47.846,-3.335
359,1436796655214,-13.908,-47.846,-3.335
360,1436796655215,-13.908,-47.846,-3.335
361,1436796655278,-13.908,-47.846,-3.335
362,1436796655279,-13.908,-47.846,-3.335
363,1436796655280,-13.908,-47.846,-3.335
364,1436796655291,-13.908,-47.846,-3.335
365,1436796655309,-13.908,-47.846,-3.335
366,1436796655329,-13.908,-47.846,-3.335
367,1436796655349,-13.908,-47.846,-3.335
368,1436796655371,-13.908,-47.846,-3.335
369,1436796655390,-13.908,-47.846,-3.335
370,1436796655410,-13.908,-47.846,-3.335
371,1436796655429,-13.908,-47.846,-3.335
372,1436796655449,-13.908,-47.846,-3.335
373,1436796655471,-13.908,-47.846,-3.335
374,1436796655490,-13.908,-47.846,-3.335
375,1436796655512,-13.908,-47.846,-3.335
376,1436796655530,-13.908,-47.846,-3.335
377,1436796655550,-13.908,-47.846,-3.335
378,1436796655569,-13.908,-47.846,-3.335
379,1436796655590,-13.908,-47.846,-3.335
380,1436796655612,-13.908,-47.846,-3.335
381,1436796655629,-13.908,-47.846,-3.335
382,1436796655673,-13.908,-47.846,-3.335
383,1436796655674,-13.908,-47.846,-3.335
384,1436796655690,-13.908,-47.846,-3.335
385,1436796655710,-13.908,-47.846,-3.335
386,1436796655729,-13.908,-47.846,-3.335
387,1436796655751,-13.908,-47.846,-3.335
388,1436796655775,-13.908,-47.846,-3.335
389,1436796655833,-13.908,-47.846,-3.335
390,1436796655844,-13.908,-47.846,-3.335
391,1436796655845,-13.908,-47.846,-3.335
392,1436796655851,-13.908,-47.846,-3.335
393,1436796655872,-13.908,-47.846,-3.335
394,1436796655892,-13.908,-47.846,-3.335
395,1436796655909,-13.908,-47.846,-3.335
396,1436796655930,-13.908,-47.846,-3.335
397,1436796655949,-13.908,-47.846,-3.335
398,1436796655972,-13.908,-47.846,-3.335
399,1436796655991,-13.908,-47.846,-3.335
400,1436796656012,-13.908,-47.846,-3.335
401,1436796656030,-13.908,-47.846,-3.335
402,1436796656053,-13.908,-47.846,-3.335
403,1436796656072,-13.908,-47.846,-3.335
404,1436796656093,-13.908,-47.846,-3.335
405,1436796656112,-13.908,-47.846,-3.335
406,1436796656132,-13.908,-47.846,-3.335
407,1436796656153,-13.908,-47.846,-3.335
408,1436796656172,-13.908,-47.846,-3.335
409,1436796656193,-13.908,-47.846,-3.335
410,1436796656212,-13.908,-47.846,-3.335
411,1436796656234,-13.908,-47.846,-3.335
412,1436796656253,-13.908,-47.846,-3.335
413,1436796656275,-13.908,-47.846,-3.335
414,1436796656295,-13.908,-47.846,-3.335
415,1436796656310,-13.908,-47.846,-3.335
416,1436796656332,-13.908,-47.846,-3.335
417,1436796656351,-13.908,-47.846,-3.335
418,1436796656370,-13.908,-47.846,-3.335
419,1436796656390,-13.908,-47.846,-3.335
420,1436796656416,-13.908,-47.846,-3.335
421,1436796656435,-13.908,-47.846,-3.335
422,1436796656456,-13.908,-47.846,-3.335
423,1436796656473,-13.908,-47.846,-3.335
424,1436796656496,-13.908,-47.846,-3.335
425,1436796656563,-13.908,-47.846,-3.335
426,1436796656564,-13.908,-47.846,-3.335
427,1436796656565,-13.908,-47.846,-3.335
428,1436796656573,-13.908,-47.846,-3.335
429,1436796656599,-13.908,-47.846,-3.335
430,1436796656611,-13.908,-47.846,-3.335
431,1436796656630,-13.908,-47.846,-3.335
432,1436796656655,-13.908,-47.846,-3.335
433,1436796656670,-13.908,-47.846,-3.335
434,1436796656754,-13.908,-47.846,-3.335
435,1436796656755,-13.908,-47.846,-3.335
436,1436796656756,-13.908,-47.846,-3.335
437,1436796656757,-13.908,-47.846,-3.335
438,1436796656775,-13.908,-47.846,-3.335
439,1436796656791,-13.908,-47.846,-3.335
440,1436796656814,-13.908,-47.846,-3.335
441,1436796656833,-13.908,-47.846,-3.335
442,1436796656853,-13.908,-47.846,-3.335
443,1436796656873,-13.908,-47.846,-3.335
444,1436796656892,-13.908,-47.846,-3.335
445,1436796656914,-13.908,-47.846,-3.335
446,1436796656930,-13.908,-47.846,-3.335
447,1436796656953,-13.908,-47.846,-3.335
448,1436796656974,-13.908,-47.846,-3.335
449,1436796656995,-13.908,-47.846,-3.335
450,1436796657014,-13.908,-47.846,-3.335
451,1436796657033,-13.908,-47.846,-3.335
452,1436796657053,-13.908,-48.149,-3.335
453,1436796657075,-13.908,-48.149,-3.335
454,1436796657095,-13.908,-48.149,-3.335
455,1436796657115,-13.908,-48.149,-3.335
456,1436796657135,-13.908,-48.149,-3.335
457,1436796657152,-13.908,-48.149,-3.335
458,1436796657173,-13.908,-48.149,-3.335
459,1436796657193,-13.908,-48.149,-3.335
460,1436796657215,-13.908,-48.149,-3.335
461,1436796657237,-13.908,-48.149,-3.335
462,1436796657255,-13.908,-48.149,-3.335
463,1436796657274,-13.908,-48.149,-3.335
464,1436796657299,-13.908,-48.149,-3.335
465,1436796657365,-13.908,-48.149,-3.335
466,1436796657366,-13.908,-48.149,-3.335
467,1436796657367,-13.908,-48.149,-3.335
468,1436796657371,-13.908,-48.149,-3.335
469,1436796657395,-13.908,-48.149,-3.335
470,1436796657412,-13.908,-48.149,-3.024
471,1436796657431,-13.908,-48.149,-3.024
472,1436796657457,-13.908,-48.149,-3.024
473,1436796657473,-13.908,-48.149,-3.024
474,1436796657492,-13.908,-47.848,-3.024
475,1436796657512,-13.908,-47.848,-3.024
476,1436796657531,-13.908,-47.848,-3.024
477,1436796657556,-14.23,-47.848,-3.024
478,1436796657575,-14.23,-47.848,-3.024
479,1436796657595,-14.23,-47.848,-3.024
480,1436796657614,-14.23,-47.848,-3.024
481,1436796657635,-14.23,-47.848,-2.708
482,1436796657654,-14.23,-47.538,-2.708
483,1436796657673,-14.23,-47.538,-2.708
484,1436796657695,-14.533,-47.538,-2.708
485,1436796657715,-14.533,-47.538,-2.708
486,1436796657735,-14.533,-47.538,-2.708
487,1436796657754,-14.533,-47.538,-2.708
488,1436796657773,-14.533,-47.538,-2.708
489,1436796657795,-14.533,-47.538,-2.708
490,1436796657816,-14.533,-47.538,-2.708
491,1436796657835,-14.533,-47.538,-2.708
492,1436796657854,-14.533,-47.538,-2.708
493,1436796657874,-14.533,-47.538,-2.708
