id,attr_time,attr_x,attr_y,attr_z
1,1436796648010,-17.32,-42.401,10.926
2,1436796648039,-17.32,-42.401,10.926
3,1436796648116,-17.32,-42.401,10.926
4,1436796648117,-17.32,-42.401,10.926
5,1436796648118,-17.32,-42.401,10.926
6,1436796648119,-17.32,-42.401,10.926
7,1436796648133,-17.32,-42.401,10.926
8,1436796648158,-17.32,-42.401,10.926
9,1436796648169,-17.32,-42.401,10.926
10,1436796648188,-17.32,-42.401,10.926
11,1436796648209,-17.32,-42.401,10.926
12,1436796648234,-17.32,-42.401,10.926
13,1436796648251,-17.32,-42.401,10.926
14,1436796648269,-17.32,-42.401,10.926
15,1436796648291,-17.32,-42.401,10.926
16,1436796648310,-17.32,-42.401,10.926
17,1436796648331,-17.32,-42.401,10.926
18,1436796648351,-17.32,-42.401,10.926
19,1436796648371,-17.32,-42.401,10.618
20,1436796648392,-17.32,-42.401,10.618
21,1436796648411,-17.32,-42.401,10.618
22,1436796648429,-17.32,-42.401,10.618
23,1436796648448,-17.32,-42.401,10.618
24,1436796648470,-17.32,-42.401,10.618
25,1436796648491,-17.32,-42.401,10.618
26,1436796648510,-17.32,-42.401,10.618
27,1436796648531,-17.32,-42.401,10.618
28,1436796648549,-17.32,-42.401,10.618
29,1436796648569,-17.32,-42.701,10.618
30,1436796648590,-17.32,-42.701,10.618
31,1436796648613,-17.32,-42.701,10.618
32,1436796648632,-17.32,-42.701,10.618
33,1436796648648,-17.32,-42.701,10.618
34,1436796648668,-17.32,-42.701,10.618
35,1436796648691,-17.32,-42.701,10.618
36,1436796648709,-17.32,-42.701,10.618
37,1436796648742,-17.32,-42.701,10.618
38,1436796648749,-17.32,-42.701,10.618
39,1436796648769,-17.32,-42.701,10.618
40,1436796648855,-17.32,-42.701,10.618
41,1436796648856,-17.32,-42.701,10.618
42,1436796648857,-17.32,-42.701,10.618
43,1436796648858,-17.32,-42.701,10.618
44,1436796648895,-17.32,-42.701,10.618
45,1436796648896,-17.32,-42.701,10.618
46,1436796648916,-17.32,-42.701,10.618
47,1436796648931,-17.32,-42.701,10.618
48,1436796648949,-17.32,-42.701,10.618
49,1436796648971,-17.32,-42.701,10.618
50,1436796648989,-17.32,-42.701,10.618
51,1436796649014,-17.32,-42.701,10.618
52,1436796649040,-17.32,-42.701,10.618
53,1436796649054,-17.32,-42.701,10.618
54,1436796649069,-17.32,-42.701,10.618
55,1436796649090,-17.32,-42.701,10.618
56,1436796649109,-17.32,-42.701,10.618
57,1436796649254,-17.32,-42.701,10.618
58,1436796649255,-17.32,-42.701,10.618
59,1436796649256,-17.32,-42.701,10.618
60,1436796649257,-17.32,-42.701,10.618
61,1436796649258,-17.32,-42.701,10.618
62,1436796649259,-17.32,-42.701,10.618
63,1436796649260,-17.32,-42.701,10.618
64,1436796649268,-17.32,-42.701,10.618
65,1436796649289,-17.32,-42.701,10.618
66,1436796649309,-17.32,-42.701,10.618
67,1436796649329,-17.32,-42.701,10.618
68,1436796649350,-17.32,-42.701,10.618
69,1436796649370,-17.32,-42.701,10.618
70,1436796649388,-17.32,-42.701,10.618
71,1436796649410,-17.32,-42.701,10.618
72,1436796649428,-17.32,-42.701,10.618
73,1436796649449,-17.32,-42.701,10.618
74,1436796649470,-17.32,-42.701,10.618
75,1436796649489,-17.32,-42.701,10.618
76,1436796649509,-17.32,-42.701,10.618
77,1436796649528,-17.32,-42.701,10.618
78,1436796649551,-17.32,-42.701,10.618
79,1436796649586,-17.32,-42.701,10.618
80,1436796649590,-17.32,-42.701,10.618
81,1436796649610,-17.32,-42.701,10.618
82,1436796649628,-17.32,-42.701,10.618
83,1436796649648,-17.32,-42.701,10.301
84,1436796649669,-17.634,-42.701,10.301
85,1436796649690,-17.634,-42.701,10.301
86,1436796649709,-17.634,-42.701,10.301
87,1436796649729,-17.634,-42.701,10.301
88,1436796649750,-17.634,-42.701,10.301
89,1436796649770,-17.634,-42.701,10.301
90,1436796649792,-17.634,-42.701,10.301
91,1436796649810,-17.634,-42.701,10.301
92,1436796649832,-17.634,-42.701,9.992
93,1436796649852,-17.634,-42.701,9.992
94,1436796649871,-17.634,-42.701,9.992
95,1436796649889,-17.634,-42.701,9.992
96,1436796649911,-17.634,-42.701,9.992
97,1436796649930,-17.634,-42.701,9.992
98,1436796649952,-17.634,-42.701,9.992
99,1436796649972,-17.634,-42.701,9.992
100,1436796649992,-17.634,-42.701,9.992
101,1436796650010,-17.634,-42.701,9.992
102,1436796650033,-17.634,-42.701,9.992
103,1436796650053,-17.634,-42.701,9.992
104,1436796650074,-17.634,-42.701,9.992
105,1436796650093,-17.634,-42.701,9.992
106,1436796650111,-17.634,-42.701,9.992
107,1436796650130,-17.634,-42.701,9.992
108,1436796650150,-17.634,-42.701,9.992
109,1436796650170,-17.634,-42.701,9.992
110,1436796650219,-17.634,-42.701,9.992
111,1436796650220,-17.634,-42.701,9.992
112,1436796650238,-17.634,-42.701,9.992
113,1436796650255,-17.634,-42.701,9.992
114,1436796650276,-17.634,-42.701,9.992
115,1436796650291,-17.634,-42.701,9.992
116,1436796650310,-17.634,-42.701,9.992
117,1436796650332,-17.634,-42.701,9.992
118,1436796650351,-17.634,-42.701,9.992
119,1436796650372,-17.634,-42.701,9.992
120,1436796650391,-17.634,-42.701,9.992
121,1436796650412,-17.634,-42.701,9.992
122,1436796650433,-17.634,-42.701,9.992
123,1436796650452,-17.634,-42.701,9.992
124,1436796650474,-17.634,-42.701,9.992
125,1436796650492,-17.634,-42.701,9.992
126,1436796650513,-17.634,-42.701,9.992
127,1436796650532,-17.634,-42.701,9.992
128,1436796650551,-17.634,-42.701,9.992
129,1436796650570,-17.634,-42.701,9.992
130,1436796650594,-17.634,-42.701,9.992
131,1436796650613,-17.634,-42.701,9.992
132,1436796650641,-17.634,-42.701,9.992
133,1436796650650,-17.634,-42.701,9.992
134,1436796650670,-17.634,-42.701,9.992
135,1436796650693,-17.634,-42.701,9.992
136,1436796650713,-17.634,-42.701,9.992
137,1436796650732,-17.634,-42.701,9.992
138,1436796650754,-17.634,-42.701,9.992
139,1436796650774,-17.634,-42.701,9.992
140,1436796650794,-17.634,-42.701,9.992
141,1436796650812,-17.634,-42.701,9.992
142,1436796650831,-17.634,-42.701,9.992
143,1436796650852,-17.634,-42.701,9.992
144,1436796650871,-17.634,-42.701,9.992
145,1436796650899,-17.634,-42.701,9.992
146,1436796650975,-17.634,-42.701,9.992
147,1436796650976,-17.634,-42.701,9.992
148,1436796650977,-17.634,-42.701,9.992
149,1436796650978,-17.634,-42.701,9.992
150,1436796650992,-17.634,-42.701,9.992
151,1436796651016,-17.634,-42.701,9.992
152,1436796651053,-17.634,-42.701,9.992
153,1436796651054,-17.634,-42.701,9.992
154,1436796651080,-17.634,-42.701,9.992
155,1436796651092,-17.634,-42.701,9.992
156,1436796651116,-17.634,-42.701,9.992
157,1436796651133,-17.634,-42.701,9.992
158,1436796651152,-17.634,-42.701,9.992
159,1436796651171,-17.634,-42.701,9.992
160,1436796651192,-17.634,-42.701,9.992
161,1436796651212,-17.634,-42.701,10.301
162,1436796651232,-17.634,-42.701,10.301
163,1436796651253,-17.634,-42.701,10.301
164,1436796651273,-17.634,-42.701,10.301
165,1436796651294,-17.634,-42.701,10.301
166,1436796651313,-17.634,-42.701,10.301
167,1436796651333,-17.634,-42.701,10.301
168,1436796651351,-17.634,-42.701,10.301
169,1436796651371,-17.634,-42.701,10.301
170,1436796651392,-17.634,-42.701,10.301
171,1436796651412,-17.634,-42.701,10.301
172,1436796651432,-17.634,-42.701,10.676
173,1436796651453,-17.634,-42.701,10.676
174,1436796651474,-17.634,-42.701,10.676
175,1436796651495,-17.634,-42.701,10.676
176,1436796651515,-17.634,-42.701,10.676
177,1436796651534,-17.634,-42.701,10.676
178,1436796651553,-17.634,-42.701,10.676
179,1436796651572,-17.634,-42.701,10.676
180,1436796651592,-17.634,-42.701,10.676
181,1436796651611,-17.634,-42.701,10.676
182,1436796651682,-17.634,-42.701,10.676
183,1436796651683,-17.634,-42.701,10.676
184,1436796651684,-17.634,-42.701,10.676
185,1436796651702,-17.634,-42.701,10.676
186,1436796651712,-17.634,-42.701,10.676
187,1436796651732,-17.634,-42.701,10.676
188,1436796651752,-17.634,-42.701,10.676
189,1436796651771,-17.634,-42.701,10.676
190,1436796651796,-17.634,-42.701,10.676
191,1436796651813,-17.634,-42.701,10.676
192,1436796651842,-17.634,-42.701,10.676
193,1436796651851,-17.634,-42.701,10.676
194,1436796651874,-17.634,-42.701,10.676
195,1436796651895,-17.634,-42.701,10.676
196,1436796651912,-17.634,-42.701,10.676
197,1436796651932,-17.634,-42.701,10.676
198,1436796651953,-17.634,-42.701,10.676
199,1436796651972,-17.634,-42.701,10.676
200,1436796652000,-17.634,-42.701,10.676
201,1436796652012,-17.634,-42.701,10.676
202,1436796652032,-17.634,-42.701,10.676
203,1436796652051,-17.634,-42.701,10.676
204,1436796652072,-17.634,-42.701,10.676
205,1436796652094,-17.634,-42.701,10.676
206,1436796652120,-17.634,-42.701,10.676
207,1436796652133,-17.634,-42.701,10.676
208,1436796652155,-17.634,-42.701,10.676
209,1436796652174,-17.634,-42.701,10.676
210,1436796652192,-17.634,-42.701,10.362
211,1436796652212,-17.634,-42.701,10.362
212,1436796652233,-17.634,-42.701,10.362
213,1436796652254,-17.634,-42.701,10.362
214,1436796652274,-17.634,-42.701,10.362
215,1436796652293,-17.634,-42.701,10.362
216,1436796652313,-17.634,-42.701,10.362
217,1436796652333,-17.634,-42.701,10.362
218,1436796652353,-17.634,-42.701,10.362
219,1436796652378,-17.634,-42.701,10.362
220,1436796652454,-17.634,-42.701,10.362
221,1436796652455,-17.634,-42.701,10.362
222,1436796652460,-17.634,-42.701,10.362
223,1436796652461,-17.634,-42.701,10.362
224,1436796652475,-17.634,-42.701,10.362
225,1436796652499,-17.634,-42.701,10.362
226,1436796652512,-17.634,-42.701,10.362
227,1436796652532,-17.634,-42.701,10.362
228,1436796652555,-17.634,-42.701,10.362
229,1436796652572,-17.634,-42.701,10.362
230,1436796652596,-17.634,-42.701,10.362
231,1436796652613,-17.634,-42.701,10.362
232,1436796652635,-17.634,-42.701,10.362
233,1436796652654,-17.634,-42.701,10.362
234,1436796652672,-17.634,-42.701,10.362
235,1436796652692,-17.634,-42.701,10.362
236,1436796652713,-17.634,-42.701,10.362
237,1436796652733,-17.634,-42.701,10.362
238,1436796652753,-17.634,-42.701,10.362
239,1436796652773,-17.634,-42.701,10.362
240,1436796652793,-17.634,-42.701,10.362
241,1436796652815,-17.634,-42.701,10.362
242,1436796652836,-17.634,-42.701,10.362
243,1436796652854,-17.634,-42.701,10.362
244,1436796652873,-17.634,-42.701,10.362
245,1436796652893,-17.634,-42.701,10.362
246,1436796652913,-17.634,-42.701,10.362
247,1436796652933,-17.634,-42.701,10.362
248,1436796652952,-17.634,-42.701,10.362
249,1436796652976,-17.634,-42.701,10.362
250,1436796652996,-17.634,-42.701,10.362
251,1436796653014,-17.634,-42.701,10.362
252,1436796653034,-17.634,-42.701,10.362
253,1436796653054,-17.634,-42.701,10.362
254,1436796653074,-17.634,-42.701,10.362
255,1436796653174,-17.634,-42.701,10.362
256,1436796653175,-17.634,-42.701,10.362
257,1436796653176,-17.634,-42.701,10.362
258,1436796653177,-17.634,-42.701,10.362
259,1436796653178,-17.634,-42.701,10.362
260,1436796653197,-17.634,-42.701,10.362
261,1436796653219,-17.634,-42.701,10.362
262,1436796653234,-17.634,-42.701,10.362
263,1436796653254,-17.634,-42.701,10.362
264,1436796653274,-17.634,-42.701,10.362
265,1436796653294,-17.634,-42.701,10.362
266,1436796653317,-17.634,-42.701,10.362
267,1436796653333,-17.634,-42.701,10.362
268,1436796653355,-17.634,-42.701,10.362
269,1436796653375,-17.634,-42.701,10.362
270,1436796653394,-17.634,-42.701,10.362
271,1436796653414,-17.634,-42.701,10.362
272,1436796653433,-17.634,-42.701,10.362
273,1436796653454,-17.634,-42.701,10.362
274,1436796653473,-17.634,-42.701,10.362
275,1436796653494,-17.634,-42.701,10.362
276,1436796653515,-17.634,-42.701,10.362
277,1436796653534,-17.634,-42.701,10.362
278,1436796653555,-17.634,-42.701,10.362
279,1436796653575,-17.634,-42.701,10.362
280,1436796653594,-17.634,-42.701,10.362
281,1436796653614,-17.634,-42.701,10.362
282,1436796653635,-17.634,-42.701,10.362
283,1436796653654,-17.634,-42.701,10.362
284,1436796653673,-17.634,-42.701,10.362
285,1436796653693,-17.634,-42.701,10.362
286,1436796653714,-17.634,-42.701,10.061
287,1436796653735,-17.634,-42.701,10.061
288,1436796653754,-17.634,-42.701,10.061
289,1436796653773,-17.634,-42.701,10.061
290,1436796653795,-17.634,-42.701,10.061
291,1436796653814,-17.634,-42.701,10.061
292,1436796653884,-17.634,-42.701,10.061
293,1436796653885,-17.634,-42.701,10.061
294,1436796653886,-17.634,-42.701,10.061
295,1436796653908,-17.634,-42.701,10.061
296,1436796653915,-17.634,-42.701,10.061
297,1436796653934,-17.634,-42.701,10.061
298,1436796653956,-17.634,-42.701,10.061
299,1436796653973,-17.634,-42.701,10.061
300,1436796653994,-17.634,-42.701,10.061
301,1436796654015,-17.634,-42.701,10.061
302,1436796654034,-17.634,-42.701,10.061
303,1436796654055,-17.634,-42.701,10.061
304,1436796654075,-17.634,-42.701,10.061
305,1436796654094,-17.634,-42.701,10.061
306,1436796654113,-17.634,-42.701,10.061
307,1436796654135,-17.634,-42.701,10.061
308,1436796654156,-17.634,-42.701,10.061
309,1436796654176,-17.634,-42.701,10.061
310,1436796654198,-17.634,-42.701,10.061
311,1436796654229,-17.634,-42.701,10.061
312,1436796654234,-17.634,-42.701,10.061
313,1436796654255,-17.634,-42.701,10.061
314,1436796654274,-17.634,-42.701,10.061
315,1436796654294,-17.634,-42.701,10.061
316,1436796654314,-17.634,-42.701,10.061
317,1436796654335,-17.634,-42.701,10.061
318,1436796654354,-17.634,-42.701,10.061
319,1436796654374,-17.634,-42.701,10.061
320,1436796654394,-17.634,-42.701,10.061
321,1436796654414,-17.634,-42.701,10.061
322,1436796654435,-17.314,-42.701,10.061
323,1436796654456,-17.314,-42.701,10.061
324,1436796654478,-17.314,-42.701,10.061
325,1436796654494,-17.314,-42.701,10.061
326,1436796654514,-17.314,-42.701,10.061
327,1436796654534,-17.314,-42.701,10.061
328,1436796654559,-17.314,-42.701,10.061
329,1436796654582,-17.314,-42.701,10.061
330,1436796654631,-17.314,-42.701,10.061
331,1436796654636,-17.314,-42.701,10.061
332,1436796654648,-17.314,-42.701,10.061
333,1436796654660,-17.314,-42.701,10.061
334,1436796654676,-17.314,-42.701,10.061
335,1436796654700,-17.314,-42.701,10.061
336,1436796654714,-17.314,-42.701,10.061
337,1436796654734,-17.314,-42.701,10.061
338,1436796654755,-17.314,-42.701,10.061
339,1436796654775,-17.314,-42.701,10.061
340,1436796654795,-17.314,-42.701,10.061
341,1436796654816,-17.314,-42.701,10.061
342,1436796654841,-17.314,-42.701,10.061
343,1436796654859,-17.314,-42.701,10.061
344,1436796654878,-17.314,-42.701,10.061
345,1436796654896,-17.314,-42.701,10.061
346,1436796654914,-17.314,-42.701,10.061
347,1436796654935,-17.314,-42.701,10.061
348,1436796654957,-17.314,-42.701,10.061
349,1436796654979,-17.314,-42.701,10.061
350,1436796654997,-17.314,-42.701,10.061
351,1436796655017,-17.314,-42.701,10.061
352,1436796655037,-17.314,-42.701,10.061
353,1436796655059,-17.314,-42.701,10.061
354,1436796655078,-17.314,-42.701,10.061
355,1436796655097,-17.314,-42.701,10.061
356,1436796655115,-17.013,-42.701,10.061
357,1436796655136,-17.013,-42.701,10.368
358,1436796655157,-17.013,-42.701,10.368
359,1436796655178,-17.013,-42.701,10.368
360,1436796655198,-17.013,-42.701,10.368
361,1436796655218,-17.013,-42.701,10.368
362,1436796655238,-17.013,-42.701,10.368
363,1436796655260,-17.013,-42.701,10.368
364,1436796655275,-17.013,-42.701,10.368
365,1436796655305,-17.013,-42.701,10.368
366,1436796655381,-17.013,-42.701,10.368
367,1436796655382,-17.013,-42.701,10.368
368,1436796655383,-17.013,-42.701,10.368
369,1436796655384,-17.013,-42.701,10.368
370,1436796655395,-17.013,-42.701,10.368
371,1436796655418,-17.013,-42.701,10.368
372,1436796655436,-17.013,-42.701,10.368
373,1436796655456,-17.013,-42.701,10.368
374,1436796655480,-17.013,-42.701,10.368
375,1436796655497,-17.013,-42.701,10.368
376,1436796655516,-17.013,-42.701,10.368
377,1436796655536,-17.013,-42.701,10.368
378,1436796655585,-17.013,-42.701,10.368
379,1436796655586,-17.013,-42.701,10.368
380,1436796655598,-17.013,-42.701,10.368
381,1436796655620,-17.013,-42.701,10.368
382,1436796655638,-17.013,-42.701,10.368
383,1436796655657,-17.013,-42.701,10.368
384,1436796655676,-17.013,-42.701,10.368
385,1436796655698,-17.013,-42.701,10.368
386,1436796655716,-17.013,-42.701,10.368
387,1436796655736,-17.013,-42.701,10.368
388,1436796655755,-17.013,-42.701,10.368
389,1436796655775,-17.013,-42.701,10.368
390,1436796655799,-17.013,-42.701,10.368
391,1436796655815,-17.013,-42.701,10.368
392,1436796655836,-17.013,-42.701,10.368
393,1436796655855,-17.013,-42.701,10.368
394,1436796655882,-17.013,-42.701,10.368
395,1436796655902,-17.013,-42.701,10.368
396,1436796655922,-17.013,-42.701,10.368
397,1436796655940,-17.013,-42.701,10.368
398,1436796655957,-17.013,-42.701,10.368
399,1436796655976,-17.013,-42.701,10.368
400,1436796655996,-17.013,-42.701,10.368
401,1436796656016,-17.013,-42.701,10.368
402,1436796656037,-17.013,-42.701,10.368
403,1436796656100,-17.013,-42.701,10.368
404,1436796656101,-17.013,-42.701,10.368
405,1436796656102,-17.013,-42.701,10.368
406,1436796656122,-17.013,-42.701,10.368
407,1436796656136,-17.013,-42.701,10.368
408,1436796656163,-17.013,-42.701,10.368
409,1436796656179,-17.013,-42.701,10.368
410,1436796656197,-17.013,-42.701,10.368
411,1436796656217,-17.013,-42.701,10.368
412,1436796656236,-17.013,-42.701,10.368
413,1436796656256,-17.013,-42.701,10.368
414,1436796656335,-17.013,-42.701,10.368
415,1436796656336,-17.013,-42.701,10.368
416,1436796656337,-17.013,-42.701,10.368
417,1436796656338,-17.013,-42.701,10.368
418,1436796656357,-17.013,-42.701,10.368
419,1436796656376,-17.013,-42.701,10.368
420,1436796656396,-17.013,-42.701,10.006
421,1436796656416,-17.013,-42.701,10.006
422,1436796656436,-17.013,-42.701,10.006
423,1436796656456,-17.013,-42.701,10.006
424,1436796656476,-17.013,-42.701,10.006
425,1436796656496,-17.013,-42.701,10.006
426,1436796656516,-17.013,-42.701,10.006
427,1436796656536,-17.013,-42.701,10.006
428,1436796656556,-17.013,-42.701,10.006
429,1436796656576,-17.013,-42.701,10.006
430,1436796656596,-17.013,-42.701,10.006
431,1436796656616,-17.013,-42.701,10.006
432,1436796656636,-17.013,-42.701,10.006
433,1436796656656,-17.013,-42.701,10.006
434,1436796656678,-17.013,-42.701,10.006
435,1436796656699,-17.013,-42.701,10.006
436,1436796656720,-17.013,-42.701,10.006
437,1436796656738,-17.013,-42.701,10.006
438,1436796656757,-17.013,-42.701,10.006
439,1436796656777,-17.013,-42.701,10.006
440,1436796656797,-17.013,-42.701,10.006
441,1436796656818,-17.013,-42.701,10.006
442,1436796656841,-17.314,-42.701,10.006
443,1436796656855,-17.314,-42.701,10.006
444,1436796656877,-17.314,-42.701,10.006
445,1436796656895,-17.314,-42.701,10.006
446,1436796656916,-17.314,-42.701,10.006
447,1436796656938,-17.314,-42.701,10.006
448,1436796656957,-17.314,-42.701,10.006
449,1436796656977,-17.314,-42.701,10.006
450,1436796657000,-17.314,-42.701,10.006
451,1436796657019,-17.314,-42.701,10.006
452,1436796657037,-17.314,-42.701,10.006
453,1436796657056,-17.314,-42.701,10.006
454,1436796657078,-17.314,-42.701,10.006
455,1436796657099,-17.314,-42.701,10.006
456,1436796657117,-17.314,-42.701,10.006
457,1436796657139,-17.314,-42.701,10.006
458,1436796657159,-17.314,-42.701,10.006
459,1436796657178,-17.314,-42.701,10.006
460,1436796657196,-17.314,-42.701,10.006
461,1436796657217,-17.314,-42.701,10.006
462,1436796657238,-17.314,-42.701,10.006
463,1436796657259,-17.314,-42.701,10.006
464,1436796657279,-17.314,-42.701,10.006
465,1436796657300,-17.314,-42.701,10.006
466,1436796657320,-17.314,-42.701,10.006
467,1436796657340,-17.314,-42.701,10.006
468,1436796657360,-17.314,-42.701,10.006
469,1436796657381,-17.314,-42.701,10.006
470,1436796657402,-17.314,-42.701,10.006
471,1436796657422,-17.314,-42.701,10.006
472,1436796657440,-17.314,-42.701,10.006
473,1436796657462,-17.314,-42.701,10.006
474,1436796657523,-17.314,-42.701,9.684
475,1436796657524,-17.314,-42.701,9.684
476,1436796657525,-17.314,-42.701,9.684
477,1436796657546,-17.314,-42.701,9.684
478,1436796657557,-17.314,-42.701,9.684
479,1436796657578,-17.314,-42.701,9.684
480,1436796657598,-17.628,-42.701,9.684
481,1436796657617,-17.628,-42.701,9.684
482,1436796657639,-17.628,-42.701,9.684
483,1436796657658,-17.628,-42.701,9.684
484,1436796657678,-17.628,-42.701,9.684
485,1436796657702,-17.628,-42.701,9.684
486,1436796657717,-17.628,-42.701,9.684
487,1436796657738,-17.628,-42.701,9.684
488,1436796657759,-17.628,-42.701,9.684
489,1436796657781,-17.628,-42.701,9.684
490,1436796657799,-17.628,-42.701,9.684
491,1436796657820,-17.628,-42.701,9.684
492,1436796657839,-17.628,-42.701,9.684
493,1436796657860,-17.628,-42.701,9.379
