id,attr_time,attr_x,attr_y,attr_z
1,1436796648005,-5.662,-43.33,-14.793
2,1436796648042,-5.662,-43.33,-14.793
3,1436796648047,-5.662,-43.33,-14.793
4,1436796648065,-5.662,-43.33,-14.793
5,1436796648086,-5.662,-43.33,-14.793
6,1436796648105,-5.662,-43.33,-14.793
7,1436796648127,-5.662,-43.33,-14.793
8,1436796648148,-5.662,-43.33,-14.793
9,1436796648166,-5.662,-43.33,-14.793
10,1436796648185,-5.662,-43.33,-14.793
11,1436796648209,-5.662,-43.33,-14.793
12,1436796648227,-5.662,-43.33,-14.793
13,1436796648248,-5.662,-43.33,-14.793
14,1436796648270,-5.662,-43.33,-14.793
15,1436796648287,-5.662,-43.33,-14.793
16,1436796648309,-5.662,-43.33,-14.793
17,1436796648329,-5.662,-43.33,-14.793
18,1436796648349,-5.662,-43.33,-14.793
19,1436796648369,-5.662,-43.33,-14.793
20,1436796648390,-5.662,-43.33,-14.793
21,1436796648407,-5.662,-43.33,-14.793
22,1436796648430,-5.662,-43.33,-14.793
23,1436796648446,-5.662,-43.33,-14.793
24,1436796648467,-5.662,-43.33,-14.793
25,1436796648487,-5.662,-43.33,-14.793
26,1436796648508,-5.662,-43.33,-14.793
27,1436796648532,-5.662,-43.33,-14.793
28,1436796648548,-5.662,-43.33,-14.793
29,1436796648567,-5.662,-43.33,-14.793
30,1436796648588,-5.662,-43.33,-14.793
31,1436796648610,-5.662,-43.33,-14.793
32,1436796648629,-5.662,-43.33,-14.793
33,1436796648647,-5.662,-43.33,-14.793
34,1436796648713,-5.662,-43.33,-14.793
35,1436796648714,-5.662,-43.33,-14.793
36,1436796648715,-5.662,-43.33,-14.793
37,1436796648736,-5.662,-43.33,-14.793
38,1436796648746,-5.662,-43.33,-14.793
39,1436796648771,-5.662,-43.33,-14.793
40,1436796648788,-5.662,-43.33,-14.793
41,1436796648808,-5.662,-43.33,-14.793
42,1436796648829,-5.662,-43.33,-14.793
43,1436796648847,-5.662,-43.33,-14.462
44,1436796648868,-5.973,-43.33,-14.462
45,1436796648888,-5.973,-43.33,-14.462
46,1436796648909,-5.973,-43.33,-14.462
47,1436796648928,-5.973,-43.33,-14.462
48,1436796648950,-5.973,-43.33,-14.462
49,1436796648969,-5.973,-43.33,-14.462
50,1436796648990,-5.973,-43.33,-14.462
51,1436796649010,-5.973,-43.33,-14.462
52,1436796649028,-5.973,-43.33,-14.462
53,1436796649050,-5.973,-43.33,-14.462
54,1436796649071,-5.973,-43.33,-14.462
55,1436796649089,-5.973,-43.33,-14.462
56,1436796649108,-5.973,-43.33,-14.462
57,1436796649130,-5.973,-43.33,-14.462
58,1436796649150,-5.973,-43.33,-14.462
59,1436796649170,-5.973,-43.33,-14.462
60,1436796649190,-5.973,-43.33,-14.462
61,1436796649210,-5.973,-43.33,-14.462
62,1436796649228,-5.973,-43.33,-14.462
63,1436796649248,-5.662,-43.33,-14.462
64,1436796649267,-5.662,-43.33,-14.462
65,1436796649290,-5.662,-43.33,-14.462
66,1436796649310,-5.662,-43.33,-14.462
67,1436796649330,-5.662,-43.33,-14.462
68,1436796649348,-5.662,-43.33,-14.462
69,1436796649376,-5.662,-43.33,-14.462
70,1436796649387,-5.662,-43.33,-14.462
71,1436796649440,-5.662,-43.33,-14.462
72,1436796649441,-5.662,-43.33,-14.462
73,1436796649461,-5.662,-43.33,-14.462
74,1436796649468,-5.662,-43.33,-14.462
75,1436796649487,-5.662,-43.33,-14.462
76,1436796649507,-5.662,-43.33,-14.462
77,1436796649527,-5.662,-43.33,-14.462
78,1436796649555,-5.662,-43.33,-14.462
79,1436796649567,-5.662,-43.33,-14.462
80,1436796649591,-5.662,-43.33,-14.462
81,1436796649617,-5.662,-43.33,-14.762
82,1436796649628,-5.662,-43.33,-14.762
83,1436796649650,-5.662,-43.33,-14.762
84,1436796649671,-5.662,-43.33,-14.762
85,1436796649690,-5.662,-43.33,-14.762
86,1436796649710,-5.662,-43.33,-14.762
87,1436796649730,-5.662,-43.33,-14.762
88,1436796649750,-5.662,-43.33,-14.762
89,1436796649769,-5.662,-43.33,-14.762
90,1436796649791,-5.662,-43.33,-14.762
91,1436796649810,-5.662,-43.33,-14.762
92,1436796649830,-5.662,-43.33,-14.762
93,1436796649848,-5.662,-43.33,-14.762
94,1436796649871,-5.662,-43.33,-14.762
95,1436796649890,-5.662,-43.33,-14.762
96,1436796649910,-5.352,-43.33,-14.762
97,1436796649930,-5.352,-43.33,-14.762
98,1436796649951,-5.352,-43.33,-14.762
99,1436796649970,-5.352,-43.33,-14.762
100,1436796649989,-5.352,-43.33,-14.762
101,1436796650009,-5.352,-43.33,-15.075
102,1436796650031,-5.352,-43.33,-15.075
103,1436796650051,-5.352,-43.33,-15.075
104,1436796650074,-5.043,-43.33,-15.075
105,1436796650088,-5.043,-43.33,-15.075
106,1436796650115,-5.043,-43.33,-15.075
107,1436796650174,-5.043,-43.33,-15.075
108,1436796650175,-5.043,-43.33,-15.075
109,1436796650176,-5.043,-43.33,-15.075
110,1436796650195,-5.043,-43.33,-15.075
111,1436796650209,-5.043,-43.33,-15.379
112,1436796650229,-5.043,-43.33,-15.379
113,1436796650247,-5.043,-43.33,-15.379
114,1436796650268,-5.043,-43.33,-15.379
115,1436796650289,-5.043,-43.33,-15.379
116,1436796650308,-5.043,-43.33,-15.379
117,1436796650328,-5.043,-43.33,-15.379
118,1436796650348,-5.043,-43.33,-15.379
119,1436796650370,-5.043,-43.33,-15.379
120,1436796650389,-5.043,-43.33,-15.379
121,1436796650411,-5.043,-43.33,-15.379
122,1436796650431,-5.043,-43.33,-15.379
123,1436796650451,-5.043,-43.33,-15.379
124,1436796650470,-5.043,-43.33,-15.379
125,1436796650491,-5.043,-43.33,-15.379
126,1436796650511,-5.043,-43.33,-15.379
127,1436796650531,-5.043,-43.33,-15.379
128,1436796650550,-5.043,-43.33,-15.379
129,1436796650579,-5.043,-43.33,-15.379
130,1436796650589,-5.043,-43.33,-15.068
131,1436796650610,-5.043,-43.33,-15.068
132,1436796650629,-5.043,-43.33,-15.068
133,1436796650650,-5.043,-43.33,-15.068
134,1436796650671,-5.043,-43.33,-15.068
135,1436796650690,-5.043,-43.33,-15.068
136,1436796650711,-5.043,-43.33,-15.068
137,1436796650731,-5.043,-43.33,-15.068
138,1436796650751,-5.043,-43.33,-15.068
139,1436796650770,-5.043,-43.33,-15.068
140,1436796650791,-5.043,-43.33,-15.068
141,1436796650809,-5.043,-43.33,-15.068
142,1436796650835,-5.043,-43.33,-15.068
143,1436796650903,-5.043,-43.33,-15.068
144,1436796650904,-5.043,-43.33,-15.068
145,1436796650905,-5.043,-43.33,-15.068
146,1436796650913,-5.043,-43.33,-15.376
147,1436796650938,-5.043,-43.33,-15.376
148,1436796650957,-5.043,-43.33,-15.376
149,1436796650983,-5.043,-43.33,-15.376
150,1436796650992,-5.043,-43.33,-15.376
151,1436796651009,-5.043,-43.33,-15.376
152,1436796651050,-5.043,-43.33,-15.376
153,1436796651051,-5.043,-43.33,-15.376
154,1436796651069,-5.043,-43.33,-15.376
155,1436796651089,-5.043,-43.33,-15.376
156,1436796651108,-5.043,-43.33,-15.376
157,1436796651130,-5.043,-43.33,-15.376
158,1436796651152,-5.043,-43.33,-15.376
159,1436796651170,-5.043,-43.33,-15.376
160,1436796651191,-5.043,-43.33,-15.376
161,1436796651212,-5.043,-43.33,-15.376
162,1436796651232,-5.043,-43.33,-15.376
163,1436796651251,-5.043,-43.33,-15.376
164,1436796651269,-5.043,-43.33,-15.376
165,1436796651292,-4.719,-43.33,-15.376
166,1436796651310,-4.719,-43.33,-15.376
167,1436796651330,-4.719,-43.33,-15.376
168,1436796651351,-4.719,-43.33,-15.376
169,1436796651371,-4.719,-43.33,-15.678
170,1436796651392,-4.719,-43.33,-15.678
171,1436796651410,-4.719,-43.33,-15.678
172,1436796651432,-4.719,-43.33,-15.678
173,1436796651450,-4.719,-43.33,-15.678
174,1436796651472,-4.719,-43.33,-15.678
175,1436796651491,-4.719,-43.33,-15.678
176,1436796651511,-4.719,-43.33,-15.678
177,1436796651535,-4.719,-43.33,-15.678
178,1436796651653,-4.719,-43.33,-15.678
179,1436796651654,-4.719,-43.33,-15.678
180,1436796651655,-4.719,-43.33,-15.678
181,1436796651656,-4.719,-43.33,-15.678
182,1436796651657,-4.719,-43.33,-15.678
183,1436796651658,-4.719,-43.33,-15.678
184,1436796651678,-4.719,-43.33,-15.678
185,1436796651693,-4.719,-43.33,-15.364
186,1436796651736,-4.719,-43.33,-15.364
187,1436796651737,-4.719,-43.33,-15.364
188,1436796651904,-4.719,-43.33,-15.364
189,1436796651905,-4.719,-43.33,-15.364
190,1436796651906,-4.719,-43.33,-15.364
191,1436796651907,-4.719,-43.33,-15.364
192,1436796651908,-4.719,-43.33,-15.364
193,1436796651909,-4.719,-43.33,-15.364
194,1436796651910,-4.719,-43.33,-15.364
195,1436796651911,-4.719,-43.33,-15.364
196,1436796651912,-4.719,-43.33,-15.364
197,1436796651949,-4.719,-43.33,-15.364
198,1436796651950,-4.719,-43.33,-15.364
199,1436796651971,-4.719,-43.33,-15.364
200,1436796651991,-4.719,-43.33,-15.364
201,1436796652010,-4.719,-43.33,-15.364
202,1436796652033,-4.719,-43.33,-15.364
203,1436796652050,-4.719,-43.33,-15.364
204,1436796652070,-4.719,-43.33,-15.364
205,1436796652092,-4.719,-43.33,-15.364
206,1436796652110,-4.719,-43.33,-15.364
207,1436796652129,-4.719,-43.33,-15.364
208,1436796652153,-4.719,-43.33,-15.364
209,1436796652172,-4.719,-43.33,-15.364
210,1436796652192,-4.719,-43.33,-15.364
211,1436796652210,-4.719,-43.33,-15.364
212,1436796652230,-4.719,-43.33,-15.364
213,1436796652250,-4.719,-43.33,-15.364
214,1436796652270,-4.719,-43.33,-15.364
215,1436796652302,-4.719,-43.33,-15.364
216,1436796652371,-4.719,-43.33,-15.364
217,1436796652372,-4.719,-43.33,-15.364
218,1436796652373,-4.719,-43.33,-15.364
219,1436796652374,-4.719,-43.33,-15.364
220,1436796652390,-4.719,-43.33,-15.364
221,1436796652410,-4.719,-43.33,-15.364
222,1436796652430,-4.719,-43.33,-15.364
223,1436796652450,-4.719,-43.33,-15.364
224,1436796652482,-4.719,-43.33,-15.364
225,1436796652491,-4.719,-43.33,-15.364
226,1436796652511,-4.719,-43.33,-15.364
227,1436796652556,-5.023,-43.33,-15.364
228,1436796652559,-5.023,-43.33,-15.364
229,1436796652570,-5.023,-43.33,-15.364
230,1436796652590,-5.023,-43.33,-15.364
231,1436796652611,-5.023,-43.33,-15.364
232,1436796652630,-5.023,-43.33,-15.364
233,1436796652651,-5.023,-43.33,-15.364
234,1436796652673,-5.023,-43.33,-15.364
235,1436796652690,-5.023,-43.33,-14.984
236,1436796652711,-5.023,-43.33,-14.984
237,1436796652733,-5.349,-43.33,-14.984
238,1436796652753,-5.349,-43.33,-14.984
239,1436796652771,-5.349,-43.33,-14.666
240,1436796652790,-5.349,-43.63,-14.666
241,1436796652811,-5.349,-43.63,-14.666
242,1436796652831,-5.349,-43.63,-14.666
243,1436796652852,-5.349,-43.63,-14.666
244,1436796652871,-5.349,-43.63,-14.666
245,1436796652894,-5.349,-43.63,-14.666
246,1436796652913,-5.349,-43.63,-14.666
247,1436796652934,-5.349,-43.63,-14.666
248,1436796652953,-5.349,-43.63,-14.666
249,1436796652972,-5.349,-43.63,-14.666
250,1436796652992,-5.349,-43.63,-14.666
251,1436796653010,-5.349,-43.63,-14.666
252,1436796653031,-5.349,-43.63,-14.666
253,1436796653055,-5.349,-43.63,-14.666
254,1436796653131,-5.349,-43.63,-14.666
255,1436796653132,-5.349,-43.63,-14.666
256,1436796653133,-5.349,-43.63,-14.666
257,1436796653134,-5.349,-43.63,-14.666
258,1436796653151,-5.349,-43.63,-14.666
259,1436796653173,-5.349,-43.63,-14.978
260,1436796653190,-5.349,-43.63,-14.978
261,1436796653211,-5.349,-43.63,-14.978
262,1436796653243,-5.349,-43.63,-14.978
263,1436796653252,-5.03,-43.63,-14.978
264,1436796653272,-5.03,-43.63,-14.978
265,1436796653291,-5.03,-43.63,-14.978
266,1436796653314,-5.03,-43.63,-14.978
267,1436796653333,-5.03,-43.63,-14.978
268,1436796653354,-5.03,-43.63,-14.978
269,1436796653374,-5.03,-43.63,-14.978
270,1436796653391,-5.03,-43.63,-15.306
271,1436796653414,-5.03,-43.63,-15.306
272,1436796653434,-5.03,-43.63,-15.306
273,1436796653451,-5.03,-43.63,-15.306
274,1436796653474,-5.03,-43.63,-15.306
275,1436796653494,-5.03,-43.63,-15.306
276,1436796653512,-5.03,-43.63,-15.306
277,1436796653533,-5.03,-43.63,-15.306
278,1436796653555,-5.03,-43.63,-15.306
279,1436796653571,-5.03,-43.63,-15.306
280,1436796653592,-5.03,-43.313,-15.306
281,1436796653611,-5.03,-43.313,-15.306
282,1436796653632,-5.03,-43.313,-15.306
283,1436796653657,-5.03,-43.313,-15.306
284,1436796653673,-5.03,-43.313,-15.306
285,1436796653694,-5.03,-43.313,-15.306
286,1436796653712,-5.03,-43.313,-15.306
287,1436796653732,-5.03,-43.313,-15.306
288,1436796653751,-5.03,-43.313,-15.306
289,1436796653772,-5.03,-43.313,-15.306
290,1436796653796,-5.03,-43.313,-15.306
291,1436796653866,-5.03,-43.313,-15.306
292,1436796653872,-5.03,-43.313,-15.306
293,1436796653873,-5.03,-43.313,-15.306
294,1436796653874,-5.03,-43.313,-15.306
295,1436796653892,-5.03,-43.313,-15.306
296,1436796653913,-5.03,-43.313,-15.306
297,1436796653931,-5.03,-43.313,-15.306
298,1436796653957,-5.03,-43.313,-15.306
299,1436796653972,-5.03,-43.313,-15.306
300,1436796653992,-5.03,-43.313,-15.306
301,1436796654012,-5.03,-43.313,-15.306
302,1436796654033,-5.03,-43.313,-15.306
303,1436796654051,-5.03,-43.313,-15.306
304,1436796654075,-5.03,-43.313,-15.306
305,1436796654095,-5.03,-43.313,-15.306
306,1436796654113,-5.03,-43.313,-15.306
307,1436796654135,-5.03,-43.313,-15.306
308,1436796654155,-5.03,-43.313,-15.306
309,1436796654174,-5.03,-43.313,-15.306
310,1436796654195,-5.03,-43.313,-15.306
311,1436796654215,-5.03,-43.313,-15.306
312,1436796654234,-5.03,-43.313,-15.306
313,1436796654253,-5.03,-43.313,-15.306
314,1436796654278,-5.03,-43.313,-15.306
315,1436796654296,-5.03,-43.313,-15.306
316,1436796654316,-5.03,-43.313,-15.306
317,1436796654336,-5.03,-43.313,-15.306
318,1436796654354,-5.03,-43.313,-15.306
319,1436796654374,-5.03,-43.313,-15.306
320,1436796654392,-5.03,-43.313,-15.306
321,1436796654413,-5.03,-43.313,-15.306
322,1436796654437,-5.03,-43.313,-15.306
323,1436796654456,-5.03,-43.313,-15.306
324,1436796654477,-5.03,-43.313,-15.306
325,1436796654496,-5.03,-43.313,-15.306
326,1436796654519,-5.03,-43.313,-15.306
327,1436796654573,-5.03,-43.313,-15.306
328,1436796654585,-5.03,-43.313,-15.306
329,1436796654586,-5.03,-43.313,-15.306
330,1436796654592,-5.03,-43.313,-15.306
331,1436796654615,-5.03,-43.313,-15.306
332,1436796654632,-5.03,-43.313,-15.306
333,1436796654652,-5.03,-43.313,-15.306
334,1436796654676,-5.03,-43.313,-15.306
335,1436796654692,-5.03,-43.313,-15.306
336,1436796654714,-5.03,-43.313,-15.306
337,1436796654733,-5.03,-43.313,-15.306
338,1436796654753,-5.03,-43.313,-15.306
339,1436796654772,-5.03,-43.313,-15.306
340,1436796654796,-5.03,-43.313,-15.306
341,1436796654816,-5.03,-43.313,-15.306
342,1436796654836,-5.03,-43.313,-15.306
343,1436796654855,-5.03,-43.313,-15.306
344,1436796654876,-5.03,-43.313,-15.306
345,1436796654895,-5.03,-43.313,-15.306
346,1436796654915,-5.03,-43.313,-15.306
347,1436796654936,-5.03,-43.313,-15.306
348,1436796654955,-5.03,-43.313,-15.306
349,1436796654974,-5.331,-43.313,-15.306
350,1436796654993,-5.331,-43.313,-15.306
351,1436796655016,-5.331,-43.313,-15.306
352,1436796655032,-5.331,-43.313,-15.306
353,1436796655054,-5.331,-43.313,-15.306
354,1436796655072,-5.331,-43.313,-15.306
355,1436796655096,-5.331,-43.313,-15.306
356,1436796655119,-5.331,-43.313,-15.306
357,1436796655135,-5.331,-43.313,-15.306
358,1436796655156,-5.331,-43.313,-15.306
359,1436796655172,-5.331,-43.313,-15.306
360,1436796655193,-5.331,-43.313,-15.306
361,1436796655213,-5.331,-43.313,-15.306
362,1436796655236,-5.331,-43.313,-15.306
363,1436796655255,-5.331,-43.313,-15.306
364,1436796655332,-5.331,-43.313,-15.306
365,1436796655333,-5.331,-43.313,-15.306
366,1436796655334,-5.331,-43.313,-15.306
367,1436796655335,-5.331,-43.313,-15.306
368,1436796655355,-5.331,-43.313,-15.306
369,1436796655376,-5.331,-43.313,-15.306
370,1436796655393,-5.331,-43.313,-15.306
371,1436796655413,-5.331,-43.313,-15.306
372,1436796655435,-5.331,-43.313,-15.306
373,1436796655454,-5.331,-43.313,-15.306
374,1436796655475,-5.331,-43.313,-15.306
375,1436796655493,-5.331,-43.313,-15.306
376,1436796655518,-5.331,-43.313,-15.306
377,1436796655536,-5.331,-43.313,-15.306
378,1436796655556,-5.331,-43.313,-15.306
379,1436796655576,-5.331,-43.313,-15.306
380,1436796655596,-5.331,-43.313,-15.306
381,1436796655616,-5.331,-43.313,-15.306
382,1436796655636,-5.331,-43.313,-15.306
383,1436796655656,-5.331,-43.313,-15.306
384,1436796655676,-5.331,-43.313,-15.306
385,1436796655696,-5.331,-43.313,-15.306
386,1436796655715,-5.331,-43.313,-15.306
387,1436796655734,-5.331,-43.313,-15.306
388,1436796655756,-5.331,-43.313,-15.306
389,1436796655775,-5.331,-43.313,-15.306
390,1436796655793,-5.331,-43.313,-15.306
391,1436796655813,-5.331,-43.313,-14.962
392,1436796655836,-5.331,-43.313,-14.962
393,1436796655856,-5.331,-43.313,-14.962
394,1436796655876,-5.331,-43.313,-14.962
395,1436796655896,-5.331,-43.313,-14.962
396,1436796655915,-5.331,-43.313,-14.962
397,1436796655935,-5.657,-43.313,-14.962
398,1436796655955,-5.657,-43.313,-14.962
399,1436796655977,-5.657,-43.313,-14.962
400,1436796655995,-5.657,-43.313,-14.653
401,1436796656066,-5.657,-43.313,-14.653
402,1436796656067,-5.657,-43.313,-14.653
403,1436796656068,-5.657,-43.313,-14.653
404,1436796656076,-5.657,-43.313,-14.653
405,1436796656095,-5.657,-43.313,-14.653
406,1436796656114,-5.657,-43.313,-14.653
407,1436796656133,-5.657,-43.313,-14.653
408,1436796656159,-5.657,-43.313,-14.653
409,1436796656186,-5.657,-43.313,-14.653
410,1436796656194,-5.657,-43.313,-14.653
411,1436796656215,-5.657,-43.313,-14.653
412,1436796656236,-5.657,-43.313,-14.653
413,1436796656258,-5.657,-43.313,-14.653
414,1436796656279,-5.657,-43.313,-14.653
415,1436796656296,-5.657,-43.313,-14.653
416,1436796656317,-5.657,-43.313,-14.653
417,1436796656337,-5.657,-43.313,-14.653
418,1436796656357,-5.657,-43.313,-14.653
419,1436796656377,-5.657,-43.313,-14.993
420,1436796656397,-5.657,-43.313,-14.993
421,1436796656417,-5.657,-43.313,-14.993
422,1436796656437,-5.657,-43.313,-14.993
423,1436796656468,-5.657,-43.313,-14.993
424,1436796656474,-5.657,-43.313,-14.993
425,1436796656497,-5.657,-43.313,-14.993
426,1436796656516,-5.657,-43.313,-14.993
427,1436796656537,-5.657,-43.313,-14.993
428,1436796656557,-5.657,-43.313,-14.993
429,1436796656585,-5.657,-43.313,-14.993
430,1436796656594,-5.657,-43.313,-14.993
431,1436796656614,-5.657,-43.313,-14.993
432,1436796656634,-5.657,-43.313,-14.993
433,1436796656654,-5.657,-43.313,-14.993
434,1436796656674,-5.657,-43.313,-14.993
435,1436796656696,-5.657,-43.313,-14.993
436,1436796656724,-5.657,-43.313,-14.993
437,1436796656782,-5.657,-43.313,-14.993
438,1436796656783,-5.657,-43.313,-14.993
439,1436796656784,-5.657,-43.313,-14.993
440,1436796656796,-5.657,-43.313,-14.993
441,1436796656814,-5.657,-43.313,-14.993
442,1436796656841,-5.657,-43.313,-14.993
443,1436796656856,-5.657,-43.313,-14.993
444,1436796656877,-5.657,-43.313,-15.296
445,1436796656896,-5.657,-43.313,-15.296
446,1436796656915,-5.657,-43.313,-15.296
447,1436796656938,-5.657,-43.313,-15.296
448,1436796656960,-5.657,-43.313,-15.296
449,1436796656975,-5.657,-43.313,-15.296
450,1436796656994,-5.657,-43.313,-15.296
451,1436796657017,-5.657,-43.313,-15.296
452,1436796657037,-5.657,-43.313,-15.296
453,1436796657057,-5.657,-43.313,-15.296
454,1436796657078,-5.657,-43.313,-15.296
455,1436796657098,-5.657,-43.313,-15.296
456,1436796657118,-5.657,-43.313,-15.296
457,1436796657138,-5.657,-43.313,-15.296
458,1436796657158,-5.337,-43.313,-15.296
459,1436796657175,-5.337,-43.313,-15.296
460,1436796657200,-5.337,-43.313,-15.296
461,1436796657216,-5.337,-43.313,-15.296
462,1436796657240,-5.337,-43.313,-15.296
463,1436796657268,-5.337,-43.313,-15.296
464,1436796657300,-5.337,-43.313,-15.296
465,1436796657301,-5.337,-43.313,-15.296
466,1436796657315,-5.337,-43.313,-15.296
467,1436796657334,-5.337,-43.313,-15.296
468,1436796657355,-5.337,-43.313,-15.296
469,1436796657375,-5.337,-43.313,-15.296
470,1436796657395,-5.337,-43.313,-15.296
471,1436796657415,-5.337,-43.313,-15.296
472,1436796657435,-5.337,-43.313,-15.296
473,1436796657455,-5.337,-43.313,-15.296
474,1436796657483,-5.337,-43.313,-15.296
475,1436796657507,-5.337,-43.313,-15.296
476,1436796657516,-5.337,-43.313,-15.296
477,1436796657535,-5.337,-43.313,-15.296
478,1436796657555,-5.337,-43.313,-15.296
479,1436796657576,-5.337,-43.313,-15.296
480,1436796657601,-5.337,-43.313,-15.296
481,1436796657726,-5.337,-43.313,-15.296
482,1436796657727,-5.337,-43.313,-15.296
483,1436796657728,-5.337,-43.313,-15.296
484,1436796657729,-5.337,-43.313,-15.296
485,1436796657730,-5.337,-43.313,-15.296
486,1436796657731,-5.337,-43.313,-15.296
487,1436796657750,-5.337,-43.313,-15.296
488,1436796657755,-5.337,-43.313,-15.296
489,1436796657776,-5.337,-43.313,-15.296
490,1436796657795,-5.337,-43.313,-15.296
491,1436796657815,-5.337,-43.313,-15.296
492,1436796657835,-5.337,-43.313,-15.296
493,1436796657855,-5.337,-43.313,-15.296
494,1436796657876,-5.337,-43.313,-15.296
495,1436796657899,-5.337,-43.313,-15.296
496,1436796657918,-5.337,-43.313,-15.296
497,1436796657938,-5.337,-43.313,-15.296
498,1436796657957,-5.337,-43.313,-15.296
