id,attr_time,attr_x,attr_y,attr_z
1,1436609875229,34.643,3.025,-28.973
2,1436609875249,34.643,3.025,-28.973
3,1436609875269,34.643,3.025,-28.973
4,1436609875289,34.643,3.025,-28.973
5,1436609875308,34.643,3.025,-28.973
6,1436609875326,34.643,3.025,-28.973
7,1436609875349,34.643,3.025,-28.973
8,1436609875369,34.643,3.025,-28.973
9,1436609875385,34.643,3.025,-28.973
10,1436609875405,34.643,3.025,-28.973
11,1436609875428,34.643,3.025,-28.973
12,1436609875451,34.643,3.025,-28.973
13,1436609875471,34.643,3.025,-28.973
14,1436609875491,34.643,3.025,-28.973
15,1436609875509,34.643,3.025,-28.973
16,1436609875534,34.643,3.025,-28.973
17,1436609875545,34.643,3.025,-28.973
18,1436609875566,34.643,3.025,-28.973
19,1436609875585,34.643,3.025,-28.973
20,1436609875605,34.643,3.025,-28.973
21,1436609875628,34.643,3.025,-28.973
22,1436609875649,34.643,3.025,-28.973
23,1436609875665,34.643,3.025,-28.973
24,1436609875686,34.643,3.025,-28.973
25,1436609875706,34.643,3.025,-28.973
26,1436609875727,34.643,3.025,-28.973
27,1436609875746,34.643,3.025,-28.973
28,1436609875776,34.643,3.025,-28.973
29,1436609875798,34.643,3.025,-28.973
30,1436609875806,34.643,3.025,-28.646
31,1436609875844,34.643,3.025,-28.646
32,1436609875884,34.643,3.025,-28.646
33,1436609875885,34.643,3.025,-28.646
34,1436609875901,34.643,3.025,-28.646
35,1436609875931,34.643,3.025,-28.646
36,1436609875932,34.643,3.025,-28.646
37,1436609875946,34.643,3.025,-28.646
38,1436609875966,34.643,3.025,-28.646
39,1436609875986,34.643,3.025,-28.646
40,1436609876006,34.643,3.025,-28.646
41,1436609876026,34.643,3.025,-28.646
42,1436609876046,34.643,3.025,-28.646
43,1436609876066,34.643,3.025,-28.646
44,1436609876090,34.643,3.025,-28.646
45,1436609876106,34.643,3.025,-28.646
46,1436609876144,34.643,3.025,-28.646
47,1436609876146,34.643,3.025,-28.646
48,1436609876166,34.643,3.025,-28.646
49,1436609876189,34.643,3.025,-28.646
50,1436609876205,34.335,3.025,-28.646
51,1436609876227,34.335,3.025,-28.646
52,1436609876247,34.335,3.025,-28.646
53,1436609876271,34.335,3.025,-28.646
54,1436609876292,34.335,3.025,-28.646
55,1436609876311,34.335,3.025,-28.646
56,1436609876327,34.335,3.025,-28.646
57,1436609876371,34.335,3.025,-28.646
58,1436609876372,34.335,3.025,-28.646
59,1436609876385,34.335,3.025,-28.646
60,1436609876405,34.335,3.025,-28.646
61,1436609876425,34.335,3.025,-28.646
62,1436609876447,34.335,3.025,-28.646
63,1436609876468,34.335,3.025,-28.646
64,1436609876491,34.335,3.025,-28.646
65,1436609876507,34.335,3.025,-28.646
66,1436609876530,34.335,3.025,-28.646
67,1436609876550,34.335,3.025,-28.646
68,1436609876570,34.335,3.025,-28.646
69,1436609876586,34.335,3.025,-28.646
70,1436609876610,34.335,3.025,-28.646
71,1436609876631,34.335,3.025,-28.646
72,1436609876650,34.335,3.025,-28.646
73,1436609876670,34.335,3.025,-28.646
74,1436609876690,34.335,3.025,-28.646
75,1436609876706,34.335,3.025,-28.646
76,1436609876726,34.335,3.025,-28.646
77,1436609876750,34.335,3.025,-28.646
78,1436609876770,34.335,3.025,-28.646
79,1436609876789,34.335,3.025,-28.646
80,1436609876809,34.335,3.025,-28.646
81,1436609876830,34.335,3.025,-28.646
82,1436609876849,34.335,3.025,-28.646
83,1436609876870,34.335,3.025,-28.646
84,1436609876889,34.335,3.025,-28.646
85,1436609876911,34.335,3.025,-28.646
86,1436609876931,34.335,3.025,-28.646
87,1436609876954,34.335,3.025,-28.646
88,1436609876967,34.335,3.025,-28.646
89,1436609877008,34.335,3.025,-28.646
90,1436609877009,34.335,3.025,-28.646
91,1436609877032,34.335,3.025,-28.646
92,1436609877047,34.335,3.025,-28.646
93,1436609877067,34.335,3.025,-28.646
94,1436609877087,34.335,3.025,-28.646
95,1436609877108,34.335,3.025,-28.646
96,1436609877127,34.335,3.025,-28.97
97,1436609877151,34.335,3.025,-28.97
98,1436609877167,34.335,3.025,-28.97
99,1436609877189,34.335,3.025,-28.97
100,1436609877210,34.335,3.025,-28.97
101,1436609877229,34.335,3.025,-28.97
102,1436609877247,34.335,3.025,-28.97
103,1436609877270,34.335,3.025,-28.97
104,1436609877290,34.335,3.025,-28.97
105,1436609877310,34.335,3.025,-28.97
106,1436609877330,34.335,3.025,-28.97
107,1436609877350,34.335,3.025,-28.97
108,1436609877370,34.335,3.025,-28.97
109,1436609877390,34.335,3.025,-28.97
110,1436609877410,34.335,3.025,-28.97
111,1436609877430,34.335,3.025,-28.97
112,1436609877451,34.335,3.025,-28.97
113,1436609877470,34.335,3.025,-28.97
114,1436609877489,34.335,3.025,-28.97
115,1436609877508,34.335,3.025,-28.97
116,1436609877528,34.335,3.025,-28.97
117,1436609877549,34.335,3.025,-28.97
118,1436609877570,34.335,3.025,-28.97
119,1436609877590,34.335,3.025,-28.97
120,1436609877610,34.335,3.025,-28.97
121,1436609877628,34.335,3.025,-28.97
122,1436609877649,34.335,3.025,-28.97
123,1436609877669,34.335,3.025,-28.97
124,1436609877689,34.335,3.025,-28.97
125,1436609877709,34.335,3.025,-28.97
126,1436609877761,34.335,3.025,-28.97
127,1436609877773,34.335,3.025,-28.97
128,1436609877774,34.335,3.025,-28.97
129,1436609877788,34.335,3.025,-28.97
130,1436609877810,34.335,3.025,-28.97
131,1436609877830,34.335,3.025,-28.97
132,1436609877848,34.637,3.025,-28.97
133,1436609877870,34.637,3.025,-28.97
134,1436609877888,34.637,3.025,-28.97
135,1436609877908,34.637,3.025,-28.97
136,1436609877929,34.637,3.025,-28.97
137,1436609877949,34.637,3.025,-28.97
138,1436609877969,34.637,3.025,-28.97
139,1436609877991,34.637,3.025,-28.97
140,1436609878011,34.637,3.025,-28.97
141,1436609878031,34.637,3.025,-28.97
142,1436609878052,34.637,3.025,-28.97
143,1436609878071,34.637,3.025,-28.97
144,1436609878091,34.637,3.025,-28.97
145,1436609878111,34.637,3.025,-28.97
146,1436609878131,34.637,3.025,-28.97
147,1436609878152,34.637,3.025,-28.97
148,1436609878206,34.637,3.025,-28.97
149,1436609878207,34.637,3.025,-28.97
150,1436609878210,34.637,3.025,-28.97
151,1436609878231,34.637,2.679,-28.97
152,1436609878251,34.637,2.679,-28.97
153,1436609878271,34.637,2.679,-28.97
154,1436609878292,34.637,2.679,-28.97
155,1436609878308,34.637,2.679,-28.97
156,1436609878329,34.637,2.322,-28.648
157,1436609878349,34.637,2.322,-28.648
158,1436609878371,34.637,2.322,-28.648
159,1436609878391,34.985,2.322,-28.648
160,1436609878412,34.985,1.908,-28.297
161,1436609878430,34.985,1.908,-28.297
162,1436609878449,34.985,1.574,-27.934
163,1436609878519,35.293,1.574,-27.934
164,1436609878520,35.293,1.203,-27.934
165,1436609878521,35.293,0.492,-27.934
166,1436609878528,35.293,-0.099,-27.536
167,1436609878565,35.293,-0.788,-27.536
168,1436609878568,35.693,-1.652,-27.201
169,1436609878588,35.693,-1.982,-27.201
170,1436609878622,35.693,-2.651,-26.864
171,1436609878638,35.693,-3.524,-26.864
172,1436609878649,36.054,-3.524,-26.864
173,1436609878669,36.054,-4.469,-26.399
174,1436609878688,36.054,-5.628,-26.399
175,1436609878709,36.054,-5.628,-26.399
176,1436609878728,36.054,-6.713,-26.028
177,1436609878749,36.054,-7.955,-26.028
178,1436609878769,36.361,-7.955,-26.028
179,1436609878789,36.361,-8.741,-25.666
180,1436609878808,36.361,-9.512,-25.666
181,1436609878829,36.361,-9.512,-25.666
182,1436609878849,36.361,-10.441,-25.666
183,1436609878869,36.361,-11.393,-25.666
184,1436609878888,36.361,-11.846,-25.268
185,1436609878909,36.361,-12.826,-25.268
186,1436609878929,36.361,-13.919,-25.268
187,1436609878949,36.361,-13.919,-25.268
188,1436609878969,35.939,-14.987,-25.268
189,1436609878989,35.939,-15.31,-25.268
190,1436609879009,35.939,-15.31,-25.268
191,1436609879029,35.551,-15.31,-24.946
192,1436609879049,35.551,-15.878,-24.946
193,1436609879069,35.551,-15.878,-24.946
194,1436609879089,35.15,-16.45,-24.946
195,1436609879110,35.15,-16.45,-24.946
196,1436609879131,35.15,-16.45,-24.946
197,1436609879155,34.716,-17.445,-24.946
198,1436609879203,34.716,-17.779,-24.586
199,1436609879204,34.716,-17.475,-24.586
200,1436609879208,34.355,-17.938,-24.586
201,1436609879230,34.355,-17.938,-23.724
202,1436609879249,34.355,-17.938,-22.654
203,1436609879269,34.355,-18.348,-21.459
204,1436609879289,34.355,-18.348,-21.459
205,1436609879309,34.355,-18.348,-21.086
206,1436609879329,34.355,-18.348,-20.78
207,1436609879353,34.355,-18.348,-20.78
208,1436609879373,34.355,-18.348,-20.175
209,1436609879393,34.355,-18.348,-20.515
210,1436609879411,34.355,-18.663,-19.273
211,1436609879433,34.355,-18.663,-20.188
212,1436609879453,34.355,-18.663,-20.188
213,1436609879473,34.355,-18.989,-19.488
214,1436609879493,34.715,-18.989,-20.01
215,1436609879512,34.715,-18.989,-20.01
216,1436609879533,34.715,-18.989,-20.01
217,1436609879550,35.099,-18.989,-20.01
218,1436609879573,35.099,-18.989,-20.01
219,1436609879593,35.099,-18.989,-19.528
220,1436609879611,35.502,-18.989,-19.528
221,1436609879633,35.502,-18.989,-19.528
222,1436609879653,35.502,-18.989,-19.123
223,1436609879672,35.926,-18.989,-19.123
224,1436609879693,35.926,-18.989,-19.123
225,1436609879713,35.926,-18.989,-18.786
226,1436609879733,36.239,-18.989,-18.786
227,1436609879753,36.239,-18.989,-18.786
228,1436609879770,36.239,-18.989,-18.452
229,1436609879791,36.239,-18.989,-18.452
230,1436609879810,36.552,-18.989,-18.15
231,1436609879917,36.552,-18.989,-18.15
232,1436609879920,36.552,-18.989,-17.248
233,1436609879921,36.552,-18.989,-16.714
234,1436609879922,36.552,-18.989,-16.273
235,1436609879923,36.552,-18.989,-16.273
236,1436609879938,36.552,-18.989,-15.357
237,1436609879950,36.552,-19.4,-15.357
238,1436609879970,36.903,-19.4,-15.357
239,1436609879989,36.903,-19.4,-14.952
240,1436609880012,36.903,-19.801,-14.952
241,1436609880029,36.903,-19.801,-14.584
242,1436609880050,36.903,-19.801,-14.584
243,1436609880070,36.903,-20.234,-14.584
244,1436609880091,36.903,-20.234,-14.143
245,1436609880112,36.903,-20.623,-14.494
246,1436609880132,36.903,-20.623,-14.494
247,1436609880153,36.903,-21.002,-14.494
248,1436609880173,36.903,-21.002,-14.189
249,1436609880191,36.903,-21.42,-14.189
250,1436609880213,36.54,-21.42,-14.189
251,1436609880233,36.54,-21.833,-14.189
252,1436609880253,36.54,-22.583,-13.847
253,1436609880273,36.23,-23.19,-13.847
254,1436609880293,36.23,-23.638,-13.847
255,1436609880310,36.23,-24.005,-13.847
256,1436609880333,35.833,-24.005,-13.847
257,1436609880353,35.833,-24.005,-13.847
258,1436609880373,35.833,-23.649,-13.847
259,1436609880393,35.449,-23.649,-13.847
260,1436609880413,35.449,-23.649,-14.268
261,1436609880432,35.449,-23.649,-14.268
262,1436609880453,35.078,-23.649,-14.63
263,1436609880473,35.078,-23.649,-14.63
264,1436609880493,35.078,-23.979,-15.034
265,1436609880512,34.754,-23.979,-15.447
266,1436609880532,34.754,-23.979,-15.447
267,1436609880551,34.754,-23.979,-15.447
268,1436609880572,34.754,-23.979,-15.447
269,1436609880592,34.754,-23.979,-15.447
270,1436609880656,34.44,-23.979,-15.447
271,1436609880657,34.44,-23.979,-15.447
272,1436609880662,34.44,-23.979,-15.447
273,1436609880670,34.44,-23.979,-15.797
274,1436609880692,34.44,-23.979,-15.797
275,1436609880711,34.44,-23.979,-15.797
276,1436609880730,34.777,-23.58,-15.797
277,1436609880756,34.777,-23.58,-15.797
278,1436609880771,34.777,-23.58,-15.209
279,1436609880791,35.122,-23.135,-15.209
280,1436609880812,35.122,-23.135,-15.209
281,1436609880831,35.122,-22.734,-15.209
282,1436609880853,35.485,-21.954,-15.209
283,1436609880871,35.485,-21.333,-15.209
284,1436609880891,35.485,-21.333,-14.895
285,1436609880911,35.92,-20.989,-14.895
286,1436609880935,35.92,-20.989,-14.895
287,1436609880959,35.92,-20.989,-14.895
288,1436609880979,36.32,-20.989,-14.895
289,1436609881003,36.32,-20.989,-14.468
290,1436609881011,36.32,-20.989,-14.468
291,1436609881033,36.674,-20.989,-14.468
292,1436609881051,36.674,-20.989,-14.468
293,1436609881073,36.674,-20.989,-14.149
294,1436609881093,36.674,-20.989,-14.149
295,1436609881114,36.674,-20.989,-14.149
296,1436609881134,36.674,-20.989,-14.149
297,1436609881153,36.674,-20.989,-13.787
298,1436609881174,36.674,-20.989,-13.787
299,1436609881193,36.674,-20.989,-13.787
300,1436609881213,36.674,-20.989,-13.464
301,1436609881236,36.674,-21.302,-13.464
302,1436609881254,36.674,-21.302,-13.464
303,1436609881273,36.674,-21.302,-13.464
304,1436609881293,36.674,-21.67,-13.05
305,1436609881318,36.674,-21.67,-13.05
306,1436609881382,36.674,-21.67,-13.05
307,1436609881383,36.674,-22.047,-13.05
308,1436609881384,36.674,-22.047,-13.05
309,1436609881392,36.674,-22.047,-13.05
310,1436609881411,36.674,-22.462,-13.05
311,1436609881432,36.674,-22.462,-13.05
312,1436609881453,36.674,-22.769,-13.05
313,1436609881472,36.28,-22.769,-13.05
314,1436609881491,36.28,-23.069,-13.05
315,1436609881513,36.28,-23.069,-13.05
316,1436609881532,36.28,-23.069,-13.05
317,1436609881554,36.28,-23.069,-13.05
318,1436609881576,35.9,-23.408,-13.05
319,1436609881593,35.9,-23.408,-13.05
320,1436609881613,35.9,-23.408,-13.452
321,1436609881634,35.9,-23.408,-13.452
322,1436609881654,35.577,-23.408,-13.452
323,1436609881674,35.577,-23.408,-13.833
324,1436609881694,35.577,-23.408,-13.833
325,1436609881713,35.577,-23.408,-13.833
326,1436609881733,35.577,-23.736,-13.833
327,1436609881752,35.26,-23.736,-13.833
328,1436609881773,35.26,-23.736,-13.833
329,1436609881795,35.26,-23.736,-13.833
330,1436609881812,35.26,-24.047,-13.833
331,1436609881831,35.26,-24.047,-13.833
332,1436609881853,35.26,-24.047,-13.833
333,1436609881872,35.26,-24.047,-13.833
334,1436609881893,35.26,-24.047,-13.833
335,1436609881913,35.26,-24.047,-13.459
336,1436609881933,35.26,-24.047,-13.459
337,1436609881955,35.26,-24.047,-13.459
338,1436609881973,35.26,-24.047,-13.059
339,1436609881993,35.26,-24.047,-12.615
340,1436609882018,35.26,-24.047,-12.615
341,1436609882085,35.574,-24.047,-12.615
342,1436609882086,35.574,-24.047,-12.615
343,1436609882087,35.574,-24.047,-12.313
344,1436609882096,35.574,-24.047,-12.313
345,1436609882112,35.986,-23.64,-11.906
346,1436609882133,35.986,-23.64,-11.906
347,1436609882154,35.986,-23.158,-11.57
348,1436609882173,36.381,-23.158,-11.57
349,1436609882192,36.381,-22.801,-11.161
350,1436609882212,36.381,-22.801,-10.693
351,1436609882233,36.724,-22.801,-10.36
352,1436609882255,36.724,-22.801,-9.854
353,1436609882273,36.724,-22.801,-9.028
354,1436609882295,37.077,-22.801,-9.028
355,1436609882315,37.077,-22.801,-9.028
356,1436609882335,37.077,-22.801,-8.48
357,1436609882355,37.077,-22.479,-8.48
358,1436609882375,37.422,-22.479,-8.48
359,1436609882395,37.422,-22.479,-7.855
360,1436609882413,37.422,-22.479,-8.201
361,1436609882435,37.422,-22.479,-7.707
362,1436609882454,37.422,-22.479,-7.707
363,1436609882473,37.422,-22.479,-8.12
364,1436609882495,37.422,-22.479,-8.12
365,1436609882515,37.422,-22.479,-8.12
366,1436609882535,37.422,-22.792,-7.8
367,1436609882554,37.422,-22.792,-7.8
368,1436609882575,37.422,-22.792,-7.8
369,1436609882595,37.422,-22.792,-7.8
370,1436609882615,37.422,-23.196,-7.8
371,1436609882634,37.422,-23.196,-7.8
372,1436609882653,37.422,-23.196,-7.8
373,1436609882674,37.422,-23.522,-7.8
374,1436609882694,37.1,-23.522,-7.8
375,1436609882713,37.1,-23.522,-7.8
376,1436609882807,37.1,-23.881,-7.8
377,1436609882808,37.1,-23.881,-7.8
378,1436609882809,36.698,-24.624,-7.8
379,1436609882810,36.698,-25.198,-7.8
380,1436609882816,36.392,-25.814,-7.8
381,1436609882839,36.392,-25.814,-7.8
382,1436609882870,36.01,-25.814,-7.8
383,1436609882872,36.01,-25.814,-7.8
384,1436609882936,35.702,-25.814,-7.8
385,1436609882937,35.702,-25.814,-7.8
386,1436609882938,35.702,-25.814,-7.8
387,1436609882963,35.359,-25.814,-8.117
388,1436609882972,35.359,-25.814,-8.117
389,1436609882993,35.359,-25.814,-8.117
390,1436609883012,35.359,-25.814,-8.117
391,1436609883032,35.052,-25.814,-8.511
392,1436609883052,35.052,-26.136,-8.511
393,1436609883074,35.052,-26.136,-8.511
394,1436609883096,35.052,-26.136,-8.511
395,1436609883113,35.052,-26.136,-8.511
396,1436609883133,35.052,-26.136,-8.511
397,1436609883156,35.052,-26.136,-8.815
398,1436609883173,35.052,-25.788,-8.815
399,1436609883193,35.052,-25.788,-8.815
400,1436609883213,35.404,-25.788,-8.815
401,1436609883234,35.404,-25.349,-9.144
402,1436609883256,35.404,-25.349,-9.144
403,1436609883273,35.736,-25.007,-9.144
404,1436609883296,35.736,-25.007,-9.144
405,1436609883314,35.736,-24.623,-9.144
406,1436609883333,36.178,-24.623,-9.144
407,1436609883355,36.178,-24.23,-9.144
408,1436609883376,36.497,-23.817,-9.144
409,1436609883395,36.497,-23.387,-8.721
410,1436609883415,36.497,-23.387,-8.721
411,1436609883435,36.912,-23.051,-8.721
412,1436609883453,36.912,-23.051,-8.721
413,1436609883475,36.912,-23.051,-8.721
414,1436609883493,37.26,-23.051,-8.721
415,1436609883542,37.26,-23.051,-8.341
416,1436609883543,37.26,-23.051,-8.341
417,1436609883559,37.26,-23.051,-6.997
418,1436609883575,37.562,-22.703,-6.997
419,1436609883595,37.562,-22.703,-5.799
420,1436609883613,37.562,-22.703,-5.799
421,1436609883633,37.562,-22.703,-5.337
422,1436609883655,37.562,-22.703,-4.931
423,1436609883674,37.562,-22.703,-4.188
424,1436609883695,37.562,-22.703,-4.188
425,1436609883714,37.562,-22.703,-4.188
426,1436609883736,37.562,-22.703,-3.428
427,1436609883753,37.562,-22.703,-4.086
428,1436609883776,37.562,-23.007,-3.355
429,1436609883795,37.562,-23.007,-4.133
430,1436609883814,37.562,-23.007,-3.694
431,1436609883836,37.562,-23.318,-4.051
432,1436609883856,37.562,-23.318,-4.051
433,1436609883880,37.562,-23.318,-4.051
434,1436609883897,37.562,-23.75,-4.051
435,1436609883917,37.562,-23.75,-4.051
436,1436609883936,37.562,-23.75,-4.051
437,1436609883956,37.187,-24.188,-4.051
438,1436609883977,37.187,-24.188,-4.051
439,1436609883995,37.187,-24.519,-4.051
440,1436609884014,37.187,-25.325,-4.524
441,1436609884034,36.784,-25.683,-5.14
442,1436609884056,36.784,-25.683,-5.14
443,1436609884087,36.784,-25.683,-5.14
444,1436609884093,36.451,-25.683,-5.14
445,1436609884117,36.451,-25.683,-5.14
446,1436609884134,36.451,-25.683,-5.14
447,1436609884154,36.451,-25.683,-5.14
448,1436609884174,36.451,-25.683,-5.447
449,1436609884196,36.451,-25.683,-5.447
450,1436609884214,36.132,-25.683,-5.776
451,1436609884266,36.132,-25.683,-5.776
452,1436609884267,36.132,-25.683,-5.776
453,1436609884283,36.132,-25.683,-5.776
454,1436609884294,36.132,-25.683,-5.776
455,1436609884316,36.132,-25.683,-5.776
456,1436609884335,36.132,-25.683,-5.776
457,1436609884354,36.132,-25.683,-5.401
458,1436609884377,36.132,-25.683,-5.401
459,1436609884394,36.444,-25.354,-5.401
460,1436609884416,36.444,-25.354,-4.804
461,1436609884434,36.764,-24.894,-4.496
462,1436609884458,36.764,-24.894,-4.496
463,1436609884474,37.104,-24.363,-4.496
464,1436609884497,37.104,-23.674,-4.496
465,1436609884518,37.104,-23.068,-4.496
466,1436609884537,37.458,-23.068,-4.496
467,1436609884557,37.458,-22.457,-4.159
468,1436609884578,37.458,-22.457,-4.159
469,1436609884598,37.846,-22.016,-4.159
470,1436609884617,37.846,-22.016,-3.834
471,1436609884634,38.151,-21.632,-3.834
472,1436609884658,38.151,-21.331,-3.834
473,1436609884675,38.151,-21.701,-3.834
474,1436609884696,38.545,-21.701,-3.834
475,1436609884718,38.545,-21.701,-3.834
476,1436609884738,38.545,-21.701,-3.53
477,1436609884758,38.545,-21.701,-3.53
478,1436609884777,38.545,-21.701,-3.53
479,1436609884797,38.545,-21.701,-3.53
480,1436609884818,38.545,-21.701,-3.53
481,1436609884838,38.545,-21.701,-3.53
482,1436609884861,38.545,-21.701,-3.186
483,1436609884880,38.545,-21.701,-3.186
484,1436609884900,38.545,-22.056,-3.186
485,1436609884918,38.545,-22.056,-3.186
486,1436609884936,38.545,-22.056,-2.789
487,1436609885001,38.545,-22.511,-2.789
488,1436609885002,38.545,-22.511,-2.789
489,1436609885003,38.545,-22.511,-2.789
490,1436609885015,38.211,-22.912,-2.412
491,1436609885035,38.211,-22.912,-2.412
492,1436609885054,38.211,-23.312,-2.412
493,1436609885080,37.898,-23.312,-1.986
494,1436609885095,37.898,-23.751,-1.986
495,1436609885116,37.898,-23.751,-1.986
496,1436609885135,37.898,-24.157,-1.551
497,1436609885156,37.527,-24.157,-1.551
498,1436609885178,37.527,-24.581,-1.551
499,1436609885195,37.527,-24.581,-1.551
500,1436609885217,37.527,-25.054,-1.226
501,1436609885239,37.527,-25.054,-1.226
502,1436609885258,37.527,-25.054,-1.226
503,1436609885278,37.162,-25.054,-1.226
504,1436609885299,37.162,-25.367,-1.226
505,1436609885318,37.162,-25.367,-1.786
506,1436609885338,37.162,-25.367,-2.091
507,1436609885359,37.162,-25.758,-2.719
