id,attr_time,attr_x,attr_y,attr_z
1,1436802576018,42.0105,1.40839,19.0292
2,1436802576036,41.6611,0.706482,20.3735
3,1436802576056,41.6611,0.706482,20.3735
4,1436802576076,42.0105,-1.40381,19.0292
5,1436802576095,41.1346,0.178528,19.87
6,1436802576114,41.1346,0.178528,19.87
7,1436802576135,41.6611,-1.05133,19.3649
8,1436802576154,40.2588,1.05743,22.0551
9,1436802576175,40.2588,1.05743,22.0551
10,1436802576195,40.9592,0.00305176,19.0292
11,1436802576217,42.3614,1.40839,20.0378
12,1436802576234,42.3614,1.40839,20.0378
13,1436802576252,40.4343,0.178528,19.1971
14,1436802576275,40.2588,0.706482,19.3649
15,1436802576293,40.2588,0.706482,19.3649
16,1436802576316,40.2588,-0.349426,19.3649
17,1436802576333,41.1346,-0.875854,18.8599
18,1436802576353,41.1346,-0.875854,18.8599
19,1436802576373,41.6611,0.00305176,20.0378
20,1436802576393,41.6611,2.11182,19.0292
21,1436802576414,41.6611,2.11182,19.0292
22,1436802576432,41.1346,-0.172424,20.2057
23,1436802576452,39.7339,0.881958,20.2057
24,1436802576471,39.7339,0.881958,20.2057
25,1436802576492,41.3101,-0.349426,18.692
26,1436802576513,40.6097,0.354004,20.3735
27,1436802576532,40.6097,0.354004,20.3735
28,1436802576554,40.9592,0.706482,19.0292
29,1436802576570,40.7852,1.23291,19.5328
30,1436802576590,40.7852,1.23291,19.5328
31,1436802576611,41.3101,-1.05133,19.3649
32,1436802576631,40.4343,1.58539,20.5429
33,1436802576654,40.4343,1.58539,20.5429
34,1436802576671,40.9592,-1.75476,20.0378
35,1436802576691,40.7852,0.178528,20.8786
36,1436802576710,40.7852,0.178528,20.8786
37,1436802576730,41.3101,-2.10724,20.0378
38,1436802576752,41.6611,1.40839,20.7108
39,1436802576769,41.6611,1.40839,20.7108
40,1436802576790,40.6097,-0.349426,20.7108
41,1436802576810,40.9592,0.00305176,20.3735
42,1436802576829,40.9592,0.00305176,20.3735
43,1436802576852,40.7852,-1.57928,17.8513
44,1436802576869,41.4856,0.881958,18.8599
45,1436802576889,41.4856,0.881958,18.8599
46,1436802576909,42.186,-0.524902,20.2057
47,1436802576929,40.6097,-0.349426,18.692
48,1436802576951,40.6097,-0.349426,18.692
49,1436802576969,40.9592,-0.349426,19.7006
50,1436802576988,42.5369,1.93634,21.5515
51,1436802577009,42.5369,1.93634,21.5515
52,1436802577026,40.7852,-0.172424,19.5328
53,1436802577049,41.4856,-0.172424,18.1885
54,1436802577067,41.4856,-0.172424,18.1885
55,1436802577088,42.8864,-1.22833,21.2143
56,1436802577107,41.6611,1.05743,20.7108
57,1436802577127,41.6611,1.05743,20.7108
58,1436802577148,42.7124,0.354004,19.3649
59,1436802577167,42.7124,0.00305176,19.7006
60,1436802577187,42.7124,0.00305176,19.7006
61,1436802577207,41.3101,0.354004,19.0292
62,1436802577227,40.9592,1.76086,19.0292
63,1436802577249,40.9592,1.76086,19.0292
64,1436802577266,41.4856,1.23291,19.87
65,1436802577286,41.8365,0.881958,18.8599
66,1436802577307,41.8365,0.881958,18.8599
67,1436802577326,41.4856,-1.22833,19.87
68,1436802577344,41.8365,1.23291,19.5328
69,1436802577366,41.8365,1.23291,19.5328
70,1436802577385,41.4856,-0.524902,19.5328
71,1436802577406,42.7124,-0.700378,20.0378
72,1436802577425,42.7124,-0.700378,20.0378
73,1436802577445,40.9592,-0.349426,19.7006
74,1436802577465,39.9094,0.706482,20.7108
75,1436802577483,39.9094,0.706482,20.7108
76,1436802577505,42.5369,0.52948,20.8786
77,1436802577523,40.2588,0.706482,20.0378
78,1436802577547,40.2588,0.706482,20.0378
79,1436802577564,40.4343,0.881958,20.5429
80,1436802577584,42.0105,2.11182,19.3649
81,1436802577604,42.0105,2.11182,19.3649
82,1436802577624,41.8365,-0.172424,19.5328
83,1436802577646,40.4343,-0.524902,19.5328
84,1436802577663,40.4343,-0.524902,19.5328
85,1436802577683,40.4343,0.52948,19.5328
86,1436802577702,41.3101,1.05743,20.0378
87,1436802577723,41.3101,1.05743,20.0378
88,1436802577743,41.3101,0.00305176,20.0378
89,1436802577763,40.7852,-0.172424,19.87
90,1436802577782,40.7852,-0.172424,19.87
91,1436802577799,41.3101,0.706482,19.3649
92,1436802577820,41.1346,0.178528,19.5328
93,1436802577840,41.1346,0.178528,19.5328
94,1436802577859,39.9094,0.354004,20.3735
95,1436802577880,41.8365,1.58539,20.8786
96,1436802577899,41.8365,1.58539,20.8786
97,1436802577919,41.8365,0.178528,19.1971
98,1436802577939,41.3101,0.354004,19.3649
99,1436802577959,41.3101,0.354004,19.3649
100,1436802577979,41.6611,-0.349426,20.0378
101,1436802577998,41.8365,0.881958,19.5328
102,1436802578021,41.8365,0.881958,19.5328
103,1436802578041,40.7852,0.178528,18.8599
104,1436802578060,41.1346,-0.172424,18.8599
105,1436802578083,41.1346,-0.172424,18.8599
106,1436802578099,41.8365,-1.22833,18.8599
107,1436802578119,41.1346,0.178528,19.5328
108,1436802578140,41.1346,0.178528,19.5328
109,1436802578158,41.1346,-1.57928,18.8599
110,1436802578182,41.8365,1.23291,19.5328
111,1436802578199,41.8365,1.23291,19.5328
112,1436802578219,40.9592,-0.349426,19.3649
113,1436802578239,40.2588,1.40839,20.0378
114,1436802578256,40.2588,1.40839,20.0378
115,1436802578279,42.5369,-0.524902,19.5328
116,1436802578297,40.2588,0.00305176,20.7108
117,1436802578318,40.2588,0.00305176,20.7108
118,1436802578339,41.4856,-0.524902,18.8599
119,1436802578358,41.4856,0.178528,19.5328
120,1436802578378,41.4856,0.178528,19.5328
121,1436802578398,40.7852,-0.172424,20.2057
122,1436802578417,43.0618,-0.349426,18.692
123,1436802578437,43.0618,-0.349426,18.692
124,1436802578457,41.3101,-0.349426,19.3649
125,1436802578480,42.0105,1.05743,20.7108
126,1436802578497,42.0105,1.05743,20.7108
127,1436802578517,40.4343,-0.172424,21.2143
128,1436802578537,42.3614,2.11182,20.0378
129,1436802578556,42.3614,2.11182,20.0378
130,1436802578577,41.3101,0.354004,19.0292
131,1436802578596,42.7124,-1.05133,20.3735
132,1436802578615,42.7124,-1.05133,20.3735
133,1436802578636,40.7852,-0.524902,19.5328
134,1436802578656,41.1346,1.23291,21.2143
135,1436802578678,41.1346,1.23291,21.2143
136,1436802578695,39.7339,-1.57928,19.5328
137,1436802578712,41.4856,1.58539,20.5429
138,1436802578733,41.4856,1.58539,20.5429
139,1436802578752,42.5369,-0.172424,19.5328
140,1436802578773,42.5369,-0.524902,19.5328
141,1436802578792,42.5369,-0.524902,19.5328
142,1436802578812,41.3101,0.00305176,19.0292
143,1436802578833,41.4856,0.52948,21.5515
144,1436802578852,41.4856,0.52948,21.5515
145,1436802578872,41.3101,-0.349426,19.0292
146,1436802578891,42.0105,0.00305176,20.7108
147,1436802578911,42.0105,0.00305176,20.7108
148,1436802578933,41.6611,-1.40381,20.3735
149,1436802578953,40.7852,1.23291,19.1971
150,1436802578974,40.7852,1.23291,19.1971
151,1436802578993,40.0833,0.52948,19.5328
152,1436802579013,41.4856,0.52948,19.87
153,1436802579032,41.4856,0.52948,19.87
154,1436802579053,41.1346,-1.22833,19.5328
155,1436802579074,41.8365,0.178528,21.2143
156,1436802579092,41.8365,0.178528,21.2143
157,1436802579112,41.8365,0.52948,19.1971
158,1436802579132,41.1346,1.23291,19.1971
159,1436802579152,41.1346,1.23291,19.1971
160,1436802579172,42.186,-0.875854,20.2057
161,1436802579191,40.9592,2.11182,19.7006
162,1436802579213,40.9592,2.11182,19.7006
163,1436802579231,41.3101,-0.349426,19.7006
164,1436802579251,42.7124,1.05743,17.6834
165,1436802579271,42.7124,1.05743,17.6834
166,1436802579291,40.4343,-0.875854,18.8599
167,1436802579313,40.7852,0.178528,20.2057
168,1436802579330,40.7852,0.178528,20.2057
169,1436802579348,42.186,-0.524902,19.5328
170,1436802579371,41.1346,0.52948,19.5328
171,1436802579389,41.1346,0.52948,19.5328
172,1436802579412,41.1346,0.178528,18.1885
173,1436802579429,42.186,0.881958,20.2057
174,1436802579449,42.186,0.881958,20.2057
175,1436802579470,41.1346,-0.875854,19.1971
176,1436802579487,42.3614,-0.349426,19.7006
177,1436802579509,42.3614,-0.349426,19.7006
178,1436802579528,41.3101,-1.75476,19.3649
179,1436802579548,41.3101,0.00305176,19.0292
180,1436802579569,41.3101,0.00305176,19.0292
181,1436802579588,41.3101,-0.700378,19.0292
182,1436802579609,41.1346,-0.172424,19.1971
183,1436802579628,41.1346,-0.172424,19.1971
184,1436802579648,41.1346,-0.524902,19.87
185,1436802579668,40.9592,-0.700378,19.0292
186,1436802579687,40.9592,-0.700378,19.0292
187,1436802579708,42.8864,-0.172424,19.87
188,1436802579727,42.0105,1.05743,20.3735
189,1436802579747,42.0105,1.05743,20.3735
190,1436802579767,41.8365,-0.172424,20.5429
191,1436802579787,41.1346,0.52948,20.8786
192,1436802579807,41.1346,0.52948,20.8786
193,1436802579826,41.1346,-0.875854,19.5328
194,1436802579844,39.9094,1.40839,19.7006
195,1436802579867,39.9094,1.40839,19.7006
196,1436802579885,41.6611,0.354004,18.692
197,1436802579908,40.7852,1.23291,19.5328
198,1436802579926,40.7852,1.23291,19.5328
199,1436802579944,42.0105,-0.349426,20.0378
200,1436802579966,40.9592,0.706482,19.7006
201,1436802579984,40.9592,0.706482,19.7006
202,1436802580008,42.5369,-2.28271,19.5328
203,1436802580025,41.1346,0.881958,20.2057
204,1436802580045,41.1346,0.881958,20.2057
205,1436802580065,40.4343,-0.524902,20.5429
206,1436802580084,41.6611,1.76086,20.7108
207,1436802580104,41.6611,1.76086,20.7108
208,1436802580124,42.0105,0.706482,20.3735
209,1436802580144,41.3101,0.706482,21.0464
210,1436802580164,41.3101,0.706482,21.0464
211,1436802580184,40.6097,0.354004,20.0378
212,1436802580206,40.0833,0.178528,20.8786
213,1436802580223,40.0833,0.178528,20.8786
214,1436802580243,40.4343,-1.22833,19.87
215,1436802580263,41.4856,1.58539,20.5429
216,1436802580283,41.4856,1.58539,20.5429
217,1436802580304,42.186,0.52948,20.2057
218,1436802580323,41.1346,0.52948,20.5429
219,1436802580342,41.1346,0.52948,20.5429
220,1436802580363,40.4343,-0.524902,20.2057
221,1436802580382,40.9592,-0.349426,19.3649
222,1436802580405,40.9592,-0.349426,19.3649
223,1436802580421,40.4343,-1.57928,19.87
224,1436802580443,42.186,0.52948,19.87
225,1436802580462,42.186,0.52948,19.87
226,1436802580481,41.1346,-1.93024,20.8786
227,1436802580502,41.6611,0.706482,19.7006
228,1436802580521,41.6611,0.706482,19.7006
229,1436802580544,41.4856,0.52948,18.5242
230,1436802580561,41.4856,0.52948,20.2057
231,1436802580579,41.4856,0.52948,20.2057
232,1436802580601,41.4856,-0.524902,19.1971
233,1436802580619,41.1346,-0.172424,19.1971
234,1436802580643,41.1346,-0.172424,19.1971
235,1436802580660,42.8864,-0.172424,19.5328
236,1436802580680,42.186,0.178528,19.5328
237,1436802580700,42.186,0.178528,19.5328
238,1436802580718,41.1346,0.52948,20.5429
239,1436802580742,40.9592,0.00305176,19.7006
240,1436802580757,40.9592,0.00305176,19.7006
241,1436802580779,42.3614,-0.349426,19.7006
242,1436802580800,39.3829,-0.524902,21.2143
243,1436802580819,39.3829,-0.524902,21.2143
244,1436802580838,41.6611,-1.05133,20.3735
245,1436802580859,40.9592,-0.349426,19.7006
246,1436802580876,40.9592,-0.349426,19.7006
247,1436802580898,41.8365,-0.875854,18.5242
248,1436802580918,40.4343,0.178528,19.87
249,1436802580939,40.4343,0.178528,19.87
250,1436802580958,40.2588,-0.700378,20.0378
251,1436802580978,40.6097,1.05743,20.0378
252,1436802580998,40.6097,1.05743,20.0378
253,1436802581018,40.7852,-2.28271,19.5328
254,1436802581038,43.4128,-0.349426,19.3649
255,1436802581057,43.4128,-0.349426,19.3649
256,1436802581076,41.8365,-0.875854,19.1971
257,1436802581097,40.4343,-0.172424,18.8599
258,1436802581117,40.4343,-0.172424,18.8599
259,1436802581139,40.7852,-0.524902,20.2057
260,1436802581156,41.4856,0.52948,20.2057
261,1436802581175,41.4856,0.52948,20.2057
262,1436802581197,41.4856,-1.22833,20.8786
263,1436802581216,40.6097,0.00305176,20.7108
264,1436802581238,40.6097,0.00305176,20.7108
265,1436802581256,42.3614,0.00305176,20.0378
266,1436802581275,40.0833,-0.875854,20.8786
267,1436802581296,40.0833,-0.875854,20.8786
268,1436802581315,39.9094,-1.05133,20.0378
269,1436802581338,40.6097,0.00305176,21.0464
270,1436802581356,40.6097,0.00305176,21.0464
271,1436802581375,40.6097,-0.349426,19.7006
272,1436802581394,39.5584,0.354004,20.3735
273,1436802581414,39.5584,0.354004,20.3735
274,1436802581437,40.9592,-0.700378,20.3735
275,1436802581454,40.0833,0.52948,21.2143
276,1436802581474,40.0833,0.52948,21.2143
277,1436802581492,39.5584,0.00305176,20.3735
278,1436802581514,41.4856,-0.172424,20.2057
279,1436802581533,41.4856,-0.172424,20.2057
280,1436802581554,39.7339,-0.524902,20.5429
281,1436802581573,39.5584,2.11182,23.0652
282,1436802581594,39.5584,2.11182,23.0652
283,1436802581613,39.9094,0.354004,20.0378
284,1436802581633,39.7339,1.58539,21.2143
285,1436802581653,39.7339,1.58539,21.2143
286,1436802581673,40.9592,-1.40381,20.7108
287,1436802581693,39.5584,0.706482,21.0464
288,1436802581712,39.5584,0.706482,21.0464
289,1436802581734,39.9094,0.354004,21.0464
290,1436802581751,40.6097,1.76086,23.0652
291,1436802581771,40.6097,1.76086,23.0652
292,1436802581792,40.9592,0.00305176,21.0464
293,1436802581809,40.2588,-0.349426,22.3923
294,1436802581831,40.2588,-0.349426,22.3923
295,1436802581850,41.1346,0.52948,21.8872
296,1436802581873,39.9094,-0.700378,23.4009
297,1436802581891,39.9094,-0.700378,23.4009
298,1436802581910,39.3829,-1.22833,21.2143
299,1436802581931,38.5071,1.40839,22.3923
300,1436802581948,38.5071,1.40839,22.3923
301,1436802581973,40.2588,0.706482,23.4009
302,1436802581989,37.9822,2.28729,22.8958
303,1436802582010,37.9822,2.28729,22.8958
304,1436802582030,39.7339,3.3432,23.5687
305,1436802582049,38.3316,5.10101,22.5601
306,1436802582072,38.3316,5.10101,22.5601
307,1436802582088,38.6826,5.10101,22.2244
308,1436802582109,37.8067,7.0343,22.728
309,1436802582130,37.8067,7.0343,22.728
310,1436802582149,38.6826,8.61664,23.233
311,1436802582171,37.8067,12.6587,21.3837
312,1436802582188,37.8067,12.6587,21.3837
313,1436802582208,37.8067,13.7131,21.0464
314,1436802582229,37.9822,14.592,19.87
315,1436802582248,37.9822,14.592,19.87
316,1436802582269,37.4558,13.3621,20.3735
317,1436802582288,39.5584,15.4709,18.0191
318,1436802582306,39.5584,15.4709,18.0191
319,1436802582328,39.3829,12.8342,16.507
320,1436802582347,39.3829,13.5376,16.1697
321,1436802582370,39.3829,13.5376,16.1697
322,1436802582387,39.3829,12.8342,16.507
323,1436802582405,40.2588,13.7131,15.6662
324,1436802582426,40.2588,13.7131,15.6662
325,1436802582447,40.7852,11.4288,16.8427
326,1436802582469,39.5584,13.0112,18.0191
327,1436802582486,39.5584,13.0112,18.0191
328,1436802582506,41.1346,10.3745,19.1971
329,1436802582525,41.8365,8.96759,18.8599
330,1436802582545,41.8365,8.96759,18.8599
331,1436802582568,40.6097,8.08868,20.3735
332,1436802582585,41.8365,5.80292,21.5515
333,1436802582605,41.8365,5.80292,21.5515
334,1436802582625,41.6611,0.706482,22.728
335,1436802582645,42.0105,-1.75476,22.728
336,1436802582667,42.0105,-1.75476,22.728
337,1436802582685,41.8365,-5.44586,23.9059
338,1436802582704,41.1346,-5.79834,25.5875
339,1436802582724,41.1346,-5.79834,25.5875
340,1436802582743,39.3829,-5.44586,28.2776
341,1436802582766,37.4558,-4.56696,31.8085
342,1436802582784,37.4558,-4.56696,31.8085
343,1436802582804,36.5799,-4.04053,32.6508
344,1436802582824,36.055,-0.349426,33.8272
345,1436802582843,36.055,-0.349426,33.8272
346,1436802582866,37.1063,-0.700378,34.5001
347,1436802582883,37.8067,1.76086,35.5087
348,1436802582903,37.8067,1.76086,35.5087
349,1436802582922,36.7554,0.354004,35.8444
350,1436802582943,37.1063,0.354004,37.5275
351,1436802582963,37.1063,0.354004,37.5275
352,1436802582982,37.8067,0.00305176,36.1816
353,1436802583002,39.032,0.52948,38.031
354,1436802583023,39.032,0.52948,38.031
355,1436802583040,38.3316,-0.875854,40.0497
356,1436802583064,38.3316,2.63977,41.7313
357,1436802583080,38.3316,2.63977,41.7313
358,1436802583101,36.9308,2.63977,43.0756
359,1436802583122,36.5799,8.61664,44.4214
360,1436802583141,36.5799,8.61664,44.4214
361,1436802583163,34.8282,12.8342,44.0857
362,1436802583179,34.1278,20.5688,41.7313
363,1436802583201,34.1278,20.5688,41.7313
364,1436802583220,31.4987,24.9634,39.8804
365,1436802583240,29.0466,31.6437,38.8718
366,1436802583261,29.0466,31.6437,38.8718
367,1436802583280,23.4406,33.7524,35.173
368,1436802583301,18.7103,36.0382,31.6406
369,1436802583320,18.7103,36.0382,31.6406
370,1436802583340,15.2069,36.0382,28.6148
371,1436802583360,9.5993,37.4435,25.9232
372,1436802583379,9.5993,37.4435,25.9232
373,1436802583400,5.04456,34.2804,23.5687
374,1436802583418,2.06604,33.4015,21.3837
375,1436802583439,2.06604,33.4015,21.3837
376,1436802583459,2.41699,30.5893,18.3563
377,1436802583479,2.76794,29.5334,17.3477
378,1436802583499,2.76794,29.5334,17.3477
379,1436802583518,3.46832,27.7756,17.6834
380,1436802583537,1.71661,29.5334,18.3563
381,1436802583559,1.71661,29.5334,18.3563
382,1436802583578,2.76794,26.7212,15.329
383,1436802583598,3.6438,27.2491,15.4968
384,1436802583618,3.6438,27.2491,15.4968
385,1436802583636,2.76794,26.3702,11.293
386,1436802583658,4.1687,27.4246,9.27582
387,1436802583678,4.1687,27.4246,9.27582
388,1436802583697,4.69513,25.4913,8.43506
389,1436802583717,3.6438,25.8423,8.77075
390,1436802583733,3.6438,25.8423,8.77075
391,1436802583755,2.94189,24.4369,8.77075
392,1436802583774,2.24152,24.7879,9.10645
393,1436802583794,2.24152,24.7879,9.10645
394,1436802583813,4.69513,23.7335,8.77075
395,1436802583834,6.44684,20.5688,13.8153
396,1436802583854,6.44684,20.5688,13.8153
397,1436802583873,9.95026,19.5145,13.8153
398,1436802583894,10.4752,18.9865,14.9933
399,1436802583913,10.4752,18.9865,14.9933
400,1436802583933,14.3295,16.8777,13.3118
401,1436802583953,13.6291,19.339,11.293
402,1436802583975,13.6291,19.339,11.293
403,1436802583994,14.856,17.4057,8.43506
404,1436802584015,14.1556,17.4057,8.09784
405,1436802584034,14.1556,17.4057,8.09784
406,1436802584055,16.2567,15.2954,6.75201
407,1436802584073,15.3809,14.769,7.92999
408,1436802584094,15.3809,14.769,7.92999
409,1436802584114,14.1556,12.4832,7.08923
410,1436802584133,15.2069,12.1323,9.44366
411,1436802584154,15.2069,12.1323,9.44366
412,1436802584173,15.2069,10.7254,6.41632
413,1436802584193,16.2567,8.96759,6.41632
414,1436802584213,16.2567,8.96759,6.41632
415,1436802584233,18.8858,5.62744,5.57556
416,1436802584253,23.9655,5.80292,7.08923
417,1436802584271,23.9655,5.80292,7.08923
418,1436802584293,28.1708,5.10101,9.10645
419,1436802584311,30.9738,8.61664,13.4796
420,1436802584332,30.9738,8.61664,13.4796
421,1436802584353,34.6527,11.9553,14.6561
422,1436802584372,33.9523,14.769,14.6561
423,1436802584392,33.9523,14.769,14.6561
424,1436802584410,32.901,15.1199,13.3118
425,1436802584432,32.2006,19.339,14.9933
426,1436802584451,32.2006,19.339,14.9933
427,1436802584471,29.3976,19.339,16.6748
428,1436802584491,27.4704,22.6791,19.1971
429,1436802584511,27.4704,22.6791,19.1971
430,1436802584530,25.5432,25.3159,17.3477
431,1436802584550,22.2137,26.8967,17.5156
432,1436802584570,22.2137,26.8967,17.5156
433,1436802584590,21.8643,26.5457,18.1885
434,1436802584610,20.6375,28.479,16.0019
435,1436802584633,20.6375,28.479,16.0019
436,1436802584650,21.8643,28.6545,17.8513
437,1436802584669,21.1624,29.007,18.1885
438,1436802584690,21.1624,29.007,18.1885
439,1436802584709,23.9655,26.8967,18.5242
440,1436802584730,25.3677,26.5457,20.2057
441,1436802584748,25.3677,26.5457,20.2057
442,1436802584768,25.5432,22.5021,21.0464
443,1436802584789,28.6957,21.8002,24.4095
444,1436802584808,28.6957,21.8002,24.4095
445,1436802584831,29.3976,16.8777,25.7553
446,1436802584847,28.5217,17.0532,26.2604
447,1436802584867,28.5217,17.0532,26.2604
448,1436802584888,29.9225,17.0532,24.9145
449,1436802584908,31.8497,19.6899,26.4282
450,1436802584927,31.8497,19.6899,26.4282
451,1436802584947,29.3976,17.2287,24.7467
452,1436802584967,30.6229,19.5145,25.5875
453,1436802584988,30.6229,19.5145,25.5875
454,1436802585005,30.9738,17.7567,28.2776
455,1436802585029,32.901,19.339,27.7725
456,1436802585048,32.901,19.339,27.7725
457,1436802585066,32.55,17.5812,27.7725
458,1436802585085,34.8282,19.1635,25.2502
459,1436802585106,34.8282,19.1635,25.2502
460,1436802585129,37.8067,18.9865,21.7194
461,1436802585146,36.9308,20.9213,22.5601
462,1436802585166,36.9308,20.9213,22.5601
463,1436802585185,34.1278,24.0845,19.87
464,1436802585205,31.6742,28.6545,18.5242
465,1436802585227,31.6742,28.6545,18.5242
466,1436802585245,27.9953,31.9946,15.329
467,1436802585265,25.5432,37.2681,12.3016
468,1436802585285,25.5432,37.2681,12.3016
469,1436802585305,23.4406,36.2137,4.56696
470,1436802585327,22.7402,36.5646,-0.4776
471,1436802585344,22.7402,36.5646,-0.4776
