id,attr_time,attr_x,attr_y,attr_z
1,1436802576021,7.629,-45.715,21.835
2,1436802576043,7.629,-45.715,21.528
3,1436802576062,7.629,-45.715,21.528
4,1436802576083,7.629,-45.715,21.528
5,1436802576102,7.629,-45.715,21.528
6,1436802576122,7.629,-45.715,21.528
7,1436802576144,7.629,-45.715,21.528
8,1436802576171,7.629,-45.715,21.528
9,1436802576191,7.629,-45.715,21.528
10,1436802576205,7.629,-45.715,21.528
11,1436802576224,7.629,-45.715,21.528
12,1436802576241,7.629,-45.715,21.528
13,1436802576262,7.629,-45.715,21.528
14,1436802576282,7.629,-45.715,21.528
15,1436802576302,7.629,-45.715,21.528
16,1436802576322,7.629,-45.715,21.528
17,1436802576342,7.629,-45.715,21.528
18,1436802576361,7.629,-45.715,21.528
19,1436802576381,7.629,-45.715,21.528
20,1436802576403,7.629,-45.715,21.528
21,1436802576431,7.629,-45.715,21.528
22,1436802576512,7.629,-45.715,21.528
23,1436802576513,7.629,-45.715,21.528
24,1436802576514,7.629,-45.715,21.528
25,1436802576515,7.629,-45.715,21.528
26,1436802576523,7.629,-45.715,21.528
27,1436802576546,7.629,-45.715,21.528
28,1436802576563,7.629,-45.715,21.528
29,1436802576581,7.629,-45.715,21.528
30,1436802576601,7.629,-45.715,21.528
31,1436802576621,7.629,-45.715,21.528
32,1436802576646,7.629,-45.715,21.528
33,1436802576662,7.629,-45.715,21.528
34,1436802576682,7.629,-45.715,21.528
35,1436802576701,7.629,-45.715,21.528
36,1436802576723,7.629,-45.715,21.528
37,1436802576743,7.629,-45.715,21.842
38,1436802576762,7.629,-45.715,21.842
39,1436802576782,7.629,-45.715,21.842
40,1436802576803,7.629,-45.715,21.842
41,1436802576825,7.629,-45.715,21.842
42,1436802576844,7.629,-45.715,21.842
43,1436802576863,7.629,-45.715,21.842
44,1436802576884,7.629,-45.715,21.842
45,1436802576909,7.629,-45.715,21.842
46,1436802576924,7.629,-45.715,21.842
47,1436802576943,7.629,-45.715,21.842
48,1436802576962,7.629,-45.715,21.842
49,1436802576982,7.629,-45.715,21.842
50,1436802577004,7.629,-45.715,21.842
51,1436802577024,7.629,-45.715,21.842
52,1436802577043,7.629,-45.715,21.842
53,1436802577064,7.629,-45.715,21.842
54,1436802577093,7.629,-45.715,21.842
55,1436802577106,7.629,-45.715,21.842
56,1436802577124,7.629,-45.715,21.842
57,1436802577147,7.629,-45.715,21.842
58,1436802577270,7.629,-45.715,21.842
59,1436802577271,7.629,-45.715,21.842
60,1436802577272,7.629,-45.715,21.842
61,1436802577273,7.629,-45.715,21.842
62,1436802577274,7.629,-45.715,21.842
63,1436802577275,7.629,-45.715,21.842
64,1436802577295,7.629,-45.715,21.842
65,1436802577302,7.629,-45.715,21.842
66,1436802577323,7.629,-45.715,21.842
67,1436802577342,7.629,-45.715,21.842
68,1436802577362,7.629,-45.715,21.842
69,1436802577383,7.629,-45.715,21.842
70,1436802577403,7.629,-45.715,21.842
71,1436802577423,7.629,-45.715,21.842
72,1436802577444,7.629,-45.715,21.842
73,1436802577465,7.629,-45.715,21.842
74,1436802577486,7.629,-45.715,21.842
75,1436802577504,7.629,-45.715,21.842
76,1436802577522,7.629,-45.715,21.842
77,1436802577543,7.629,-45.715,21.842
78,1436802577563,7.629,-45.715,21.842
79,1436802577585,7.629,-45.715,21.842
80,1436802577605,7.629,-45.715,21.842
81,1436802577625,7.629,-45.715,21.842
82,1436802577646,7.629,-45.715,21.842
83,1436802577665,7.629,-45.715,21.842
84,1436802577687,7.629,-45.715,21.842
85,1436802577705,7.629,-45.715,21.842
86,1436802577724,7.629,-45.715,21.842
87,1436802577743,7.629,-45.715,21.842
88,1436802577763,7.629,-45.715,21.842
89,1436802577786,7.629,-45.715,21.842
90,1436802577807,7.629,-45.715,21.842
91,1436802577827,7.629,-45.715,21.842
92,1436802577845,7.629,-45.715,21.842
93,1436802577865,7.629,-45.715,21.842
94,1436802577885,7.629,-45.715,21.842
95,1436802577903,7.629,-45.715,21.842
96,1436802577923,7.629,-45.715,21.842
97,1436802578010,7.629,-45.715,21.842
98,1436802578011,7.629,-45.715,21.842
99,1436802578012,7.629,-45.715,21.842
100,1436802578013,7.629,-45.715,21.842
101,1436802578024,7.629,-45.715,21.842
102,1436802578043,7.629,-45.715,21.842
103,1436802578063,7.629,-45.715,21.842
104,1436802578083,7.629,-45.715,21.842
105,1436802578103,7.629,-45.715,22.155
106,1436802578124,7.629,-45.715,22.155
107,1436802578145,7.629,-45.715,22.155
108,1436802578165,7.629,-45.715,22.155
109,1436802578192,7.629,-45.715,22.155
110,1436802578212,7.629,-45.715,22.155
111,1436802578227,7.629,-45.715,22.155
112,1436802578244,7.629,-45.715,22.155
113,1436802578263,7.629,-45.715,22.155
114,1436802578283,7.629,-45.715,22.155
115,1436802578305,7.629,-45.715,22.155
116,1436802578324,7.629,-45.715,22.155
117,1436802578344,7.629,-45.715,22.155
118,1436802578364,7.629,-45.715,22.155
119,1436802578440,7.629,-45.715,22.155
120,1436802578441,7.629,-45.715,22.155
121,1436802578442,7.629,-45.715,22.155
122,1436802578445,7.629,-45.715,22.155
123,1436802578463,7.629,-45.715,22.155
124,1436802578496,7.629,-45.715,22.155
125,1436802578505,7.629,-45.715,22.155
126,1436802578535,7.629,-45.715,22.155
127,1436802578544,7.629,-45.715,22.155
128,1436802578563,7.629,-45.715,22.155
129,1436802578583,7.629,-45.715,22.155
130,1436802578603,7.629,-45.715,22.155
131,1436802578623,7.629,-45.715,22.155
132,1436802578645,7.629,-45.715,22.155
133,1436802578664,7.319,-45.715,22.155
134,1436802578688,7.319,-45.715,22.155
135,1436802578713,7.319,-45.715,22.155
136,1436802578726,7.319,-45.715,22.155
137,1436802578743,7.319,-45.715,22.155
138,1436802578762,7.319,-45.715,22.155
139,1436802578784,7.319,-45.715,22.155
140,1436802578803,7.319,-45.715,22.155
141,1436802578825,7.319,-45.715,22.155
142,1436802578844,7.319,-45.715,22.155
143,1436802578866,7.319,-45.715,22.155
144,1436802578886,7.319,-45.715,22.155
145,1436802578905,7.319,-45.715,21.849
146,1436802578922,7.319,-45.715,21.849
147,1436802578946,7.319,-45.715,21.849
148,1436802578967,7.319,-45.715,21.849
149,1436802578986,7.319,-45.715,21.849
150,1436802579007,7.319,-45.715,21.849
151,1436802579024,7.319,-45.715,21.849
152,1436802579044,7.319,-45.715,21.546
153,1436802579063,7.319,-45.715,21.546
154,1436802579086,7.319,-45.715,21.546
155,1436802579106,7.319,-45.715,21.546
156,1436802579127,7.319,-45.715,21.546
157,1436802579147,7.319,-45.715,21.546
158,1436802579167,7.319,-45.715,21.546
159,1436802579187,7.319,-45.715,21.546
160,1436802579205,7.319,-45.715,21.546
161,1436802579224,7.319,-45.715,21.546
162,1436802579246,7.627,-45.715,21.546
163,1436802579267,7.627,-45.715,21.546
164,1436802579288,7.627,-45.715,21.546
165,1436802579306,7.627,-45.715,21.546
166,1436802579326,7.627,-45.715,21.546
167,1436802579381,7.627,-45.715,21.546
168,1436802579382,7.627,-45.715,21.546
169,1436802579384,7.627,-45.715,21.546
170,1436802579416,7.627,-45.715,21.546
171,1436802579424,7.627,-45.715,21.546
172,1436802579446,7.627,-45.715,21.546
173,1436802579465,7.627,-45.715,21.546
174,1436802579487,7.627,-45.715,21.546
175,1436802579505,7.627,-45.715,21.546
176,1436802579524,7.627,-45.715,21.546
177,1436802579547,7.627,-45.715,21.546
178,1436802579565,7.627,-45.715,21.546
179,1436802579588,7.627,-45.715,21.546
180,1436802579606,7.627,-45.715,21.85
181,1436802579628,7.627,-45.715,21.85
182,1436802579644,7.627,-45.715,21.85
183,1436802579666,7.627,-45.715,21.85
184,1436802579687,7.627,-45.715,21.85
185,1436802579707,7.627,-45.715,21.85
186,1436802579727,7.627,-45.715,21.85
187,1436802579747,7.627,-45.715,21.85
188,1436802579768,7.627,-45.715,21.85
189,1436802579789,7.627,-45.715,21.85
190,1436802579807,7.627,-45.715,21.85
191,1436802579826,7.627,-45.715,21.85
192,1436802579844,7.627,-45.715,22.189
193,1436802579866,7.627,-45.715,22.189
194,1436802579886,7.627,-45.715,22.189
195,1436802579908,7.627,-45.715,22.189
196,1436802579928,7.627,-45.715,22.189
197,1436802579949,7.627,-45.715,22.189
198,1436802579967,7.627,-45.715,22.189
199,1436802579988,7.627,-45.715,22.189
200,1436802580007,7.627,-45.715,22.189
201,1436802580026,7.627,-45.715,22.189
202,1436802580045,7.627,-45.715,22.189
203,1436802580065,7.627,-45.715,22.189
204,1436802580119,7.627,-45.715,22.189
205,1436802580120,7.627,-45.715,22.502
206,1436802580138,7.627,-45.715,22.502
207,1436802580146,7.627,-45.715,22.502
208,1436802580165,7.627,-45.715,22.502
209,1436802580188,7.627,-45.715,22.502
210,1436802580205,7.627,-45.715,22.502
211,1436802580225,7.627,-45.715,22.502
212,1436802580247,7.627,-45.715,22.502
213,1436802580267,7.627,-45.715,22.502
214,1436802580289,7.627,-45.715,22.502
215,1436802580307,7.627,-45.715,22.502
216,1436802580326,7.627,-45.715,22.502
217,1436802580346,7.627,-45.715,22.502
218,1436802580368,7.627,-45.715,22.502
219,1436802580388,7.627,-45.715,22.502
220,1436802580408,7.627,-45.715,22.502
221,1436802580429,7.627,-45.715,22.502
222,1436802580448,7.627,-45.715,22.502
223,1436802580466,7.627,-45.715,22.502
224,1436802580486,7.627,-45.715,22.502
225,1436802580505,7.627,-45.715,22.502
226,1436802580529,7.627,-45.715,22.502
227,1436802580546,7.627,-45.715,22.502
228,1436802580566,7.627,-45.715,22.502
229,1436802580589,7.627,-45.715,22.502
230,1436802580609,7.627,-45.715,22.502
231,1436802580629,7.627,-45.715,22.502
232,1436802580648,7.627,-45.715,22.502
233,1436802580667,7.627,-45.715,22.502
234,1436802580686,7.627,-45.715,22.502
235,1436802580706,7.627,-45.715,22.502
236,1436802580728,7.627,-45.715,22.502
237,1436802580749,7.627,-45.715,22.502
238,1436802580769,7.627,-45.715,22.502
239,1436802580787,7.627,-45.715,22.502
240,1436802580806,7.627,-45.715,22.174
241,1436802580867,7.627,-45.715,22.174
242,1436802580868,7.627,-45.715,22.174
243,1436802580869,7.627,-45.715,22.174
244,1436802580889,7.627,-45.715,22.174
245,1436802580908,7.627,-45.715,22.174
246,1436802580930,7.627,-45.715,22.174
247,1436802580947,7.627,-45.715,22.174
248,1436802580968,7.627,-45.715,22.174
249,1436802580988,7.627,-45.715,22.174
250,1436802581006,7.627,-45.715,22.174
251,1436802581027,7.627,-45.715,22.174
252,1436802581046,7.627,-45.715,22.174
253,1436802581069,7.627,-45.715,22.174
254,1436802581086,7.627,-45.715,22.174
255,1436802581109,7.627,-45.715,22.174
256,1436802581129,7.627,-45.715,22.174
257,1436802581147,7.627,-45.715,22.174
258,1436802581166,7.627,-45.715,22.174
259,1436802581187,7.627,-45.715,22.174
260,1436802581208,7.627,-45.715,22.174
261,1436802581229,7.627,-45.715,22.174
262,1436802581249,7.627,-45.715,22.174
263,1436802581271,7.627,-45.715,22.174
264,1436802581289,7.936,-45.715,22.174
265,1436802581311,7.936,-45.715,22.174
266,1436802581330,7.936,-45.715,22.174
267,1436802581349,7.936,-45.715,22.174
268,1436802581367,7.936,-45.715,22.174
269,1436802581388,7.936,-45.397,22.174
270,1436802581410,7.936,-45.397,22.499
271,1436802581430,8.253,-45.397,22.499
272,1436802581449,8.253,-45.397,22.499
273,1436802581468,8.253,-45.397,22.499
274,1436802581487,8.253,-45.397,22.499
275,1436802581507,8.615,-45.397,22.857
276,1436802581526,8.615,-45.397,22.857
277,1436802581546,8.615,-45.065,22.857
278,1436802581600,8.973,-45.065,22.857
279,1436802581601,8.973,-45.065,22.857
280,1436802581618,9.367,-45.065,22.857
281,1436802581627,10.116,-44.747,23.245
282,1436802581646,11.027,-44.747,23.245
283,1436802581670,12.019,-44.747,23.245
284,1436802581687,12.658,-44.427,23.562
285,1436802581706,13.389,-44.427,23.562
286,1436802581730,14.48,-44.427,23.562
287,1436802581746,14.924,-43.994,23.971
288,1436802581767,15.53,-43.994,23.971
289,1436802581789,15.53,-43.672,24.314
290,1436802581810,16.029,-43.672,24.314
291,1436802581828,16.029,-43.672,24.653
292,1436802581848,16.029,-43.273,24.653
293,1436802581867,16.029,-43.273,24.653
294,1436802581887,15.481,-43.273,25.041
295,1436802581907,15.481,-43.273,25.041
296,1436802581928,15.481,-42.941,25.041
297,1436802581949,15.04,-42.941,25.041
298,1436802581970,15.04,-42.941,25.39
299,1436802581989,15.04,-42.941,25.39
300,1436802582008,15.37,-42.941,25.39
301,1436802582029,15.37,-42.941,25.39
302,1436802582050,15.37,-42.941,25.39
303,1436802582068,15.37,-44.468,24.337
304,1436802582090,15.37,-45.5,23.286
305,1436802582109,15.37,-46.255,22.161
306,1436802582130,15.37,-47.215,20.932
307,1436802582149,14.761,-48.155,20.521
308,1436802582168,14.253,-48.73,19.981
309,1436802582187,13.774,-49.148,18.487
310,1436802582208,13.774,-50.137,17.744
311,1436802582229,12.963,-50.137,17.744
312,1436802582251,12.049,-50.941,16.874
313,1436802582269,11.703,-50.941,17.72
314,1436802582289,10.795,-51.322,17.72
315,1436802582368,9.654,-51.322,17.72
316,1436802582369,8.973,-51.322,18.856
317,1436802582370,7.978,-51.322,19.549
318,1436802582371,6.259,-51.322,20.448
319,1436802582387,5.664,-51.322,20.147
320,1436802582410,4.397,-50.947,20.147
321,1436802582427,3.599,-50.947,20.147
322,1436802582447,3.599,-50.947,20.147
323,1436802582468,2.876,-50.947,21.128
324,1436802582489,2.246,-50.947,21.128
325,1436802582509,2.246,-50.947,21.128
326,1436802582528,2.246,-50.947,21.128
327,1436802582549,2.246,-50.947,21.128
328,1436802582569,2.755,-50.947,21.737
329,1436802582589,2.207,-50.947,21.737
330,1436802582638,2.207,-50.947,22.384
331,1436802582639,2.54,-50.947,21.511
332,1436802582647,2.955,-50.947,21.511
333,1436802582667,3.538,-50.947,21.511
334,1436802582689,4.161,-50.947,21.511
335,1436802582708,4.161,-50.947,21.511
336,1436802582727,4.161,-50.581,21.511
337,1436802582747,4.786,-50.581,20.96
338,1436802582769,5.838,-50.581,19.169
339,1436802582788,6.767,-50.581,17.752
340,1436802582808,8.177,-50.581,16.555
341,1436802582830,9.37,-50.581,15.489
342,1436802582857,10.22,-50.581,13.864
343,1436802582867,11.122,-50.581,12.448
344,1436802582888,12.075,-50.581,10.945
345,1436802582907,12.536,-50.581,9.495
346,1436802582927,13.819,-50.581,8.39
347,1436802582948,14.172,-50.581,6.701
348,1436802582969,15.582,-50.581,6.701
349,1436802582990,16.801,-50.581,5.792
350,1436802583007,18.324,-50.581,6.243
351,1436802583040,19.848,-50.265,6.243
352,1436802583061,21.72,-50.265,6.777
353,1436802583073,24.024,-47.732,9.626
354,1436802583089,24.951,-45.613,10.054
355,1436802583109,25.704,-44.642,9.707
356,1436802583128,26.196,-43.4,10.314
357,1436802583146,26.722,-43.4,10.314
358,1436802583167,26.722,-42.497,9.478
359,1436802583187,26.722,-42.19,9.478
360,1436802583209,26.722,-41.741,9.812
361,1436802583229,27.21,-41.741,8.387
362,1436802583250,27.532,-41.39,8.387
363,1436802583269,27.532,-41.069,8.387
364,1436802583288,27.862,-40.478,8.387
365,1436802583309,27.862,-39.801,7.807
366,1436802583328,27.862,-39.801,7.807
367,1436802583347,27.862,-38.97,7.478
368,1436802583367,27.4,-38.635,7.478
369,1436802583389,27.069,-37.886,7.478
370,1436802583411,27.069,-37.5,7.478
371,1436802583428,27.069,-36.97,7.478
372,1436802583450,27.069,-36.111,7.846
373,1436802583467,27.069,-35.594,7.846
374,1436802583487,27.069,-35.594,7.846
375,1436802583509,27.069,-35.253,7.846
376,1436802583531,27.069,-35.58,7.846
377,1436802583551,27.069,-35.119,7.846
378,1436802583571,27.069,-35.119,7.846
379,1436802583588,27.069,-34.519,7.846
380,1436802583607,27.069,-34.519,7.482
381,1436802583630,27.069,-34.071,7.482
382,1436802583649,27.069,-34.071,7.482
383,1436802583670,26.751,-34.071,7.482
384,1436802583768,26.751,-34.449,7.482
385,1436802583769,26.419,-34.449,7.482
386,1436802583770,26.419,-34.449,7.164
387,1436802583771,26.022,-34.449,7.164
388,1436802583772,26.022,-34.449,6.031
389,1436802583802,25.582,-34.449,4.267
390,1436802583808,25.013,-34.144,3.404
391,1436802583838,24.555,-34.144,2.587
392,1436802583848,23.385,-34.144,1.231
393,1436802583881,22.683,-33.766,0.181
394,1436802583902,21.891,-33.766,-0.732
395,1436802583909,21.362,-33.766,-1.908
396,1436802583928,21.362,-33.224,-2.6
397,1436802583951,21.362,-32.206,-3.198
398,1436802583969,21.057,-30.868,-3.198
399,1436802583990,21.409,-29.725,-1.802
400,1436802584011,21.798,-28.947,-2.14
401,1436802584030,21.798,-28.549,-2.14
402,1436802584049,21.798,-28.549,-2.14
403,1436802584069,21.798,-27.862,-2.45
404,1436802584089,21.798,-27.862,-1.985
405,1436802584110,21.798,-27.862,-2.555
406,1436802584131,21.798,-27.862,-2.555
407,1436802584150,21.388,-27.862,-2.555
408,1436802584170,21.388,-27.412,-2.555
409,1436802584191,21.388,-27.412,-2.555
410,1436802584209,21.388,-26.858,-2.555
411,1436802584232,21.037,-26.858,-2.555
412,1436802584250,21.037,-26.858,-2.864
413,1436802584273,21.037,-26.858,-2.864
414,1436802584293,21.037,-26.858,-2.864
415,1436802584314,21.037,-26.858,-2.864
416,1436802584332,21.037,-26.858,-2.864
417,1436802584351,21.037,-26.858,-2.864
418,1436802584370,21.037,-26.858,-2.424
419,1436802584391,21.037,-26.512,-2.424
420,1436802584418,21.037,-26.512,-2.073
421,1436802584477,21.037,-26.512,-1.741
422,1436802584478,20.64,-26.512,-1.181
423,1436802584479,20.64,-26.512,-1.181
424,1436802584500,20.64,-26.197,-1.181
425,1436802584509,20.207,-26.197,-1.181
426,1436802584531,20.207,-26.197,-1.181
427,1436802584559,19.783,-26.197,-1.181
428,1436802584569,19.393,-26.197,-1.564
429,1436802584589,19.093,-26.197,-1.564
430,1436802584612,19.093,-26.197,-1.564
431,1436802584631,18.487,-26.197,-1.196
432,1436802584657,18.487,-26.197,-1.196
433,1436802584670,18.487,-26.197,-1.507
434,1436802584693,18.487,-26.197,-1.507
435,1436802584710,18.487,-26.197,-1.507
436,1436802584730,18.487,-26.197,-1.507
437,1436802584750,18.103,-26.524,-1.507
438,1436802584770,18.103,-26.524,-1.507
439,1436802584790,18.103,-26.524,-1.507
440,1436802584810,17.796,-26.524,-1.507
441,1436802584830,17.796,-26.524,-1.884
442,1436802584850,17.796,-26.831,-1.884
443,1436802584870,17.481,-26.831,-2.197
444,1436802584896,17.481,-26.831,-2.197
445,1436802584909,17.481,-26.831,-2.197
446,1436802584930,17.481,-26.831,-2.629
447,1436802584949,17.163,-26.831,-2.629
448,1436802584970,17.163,-26.831,-2.629
449,1436802584994,17.163,-26.831,-2.975
450,1436802585013,17.163,-26.831,-2.975
451,1436802585036,17.163,-27.153,-2.975
452,1436802585051,16.806,-27.153,-2.975
453,1436802585071,16.806,-27.153,-2.975
454,1436802585090,16.806,-27.153,-2.975
455,1436802585110,16.447,-27.491,-2.975
456,1436802585136,16.447,-27.491,-2.975
457,1436802585155,16.142,-27.491,-2.975
458,1436802585168,16.142,-27.815,-2.333
459,1436802585188,15.751,-27.815,-1.863
460,1436802585208,15.422,-27.815,-1.074
461,1436802585228,14.668,-28.253,-1.074
462,1436802585250,14.297,-28.253,-1.074
463,1436802585273,13.894,-28.915,-1.074
464,1436802585289,13.265,-29.296,-1.074
465,1436802585310,13.265,-29.841,-1.51
466,1436802585329,12.663,-30.154,-1.831
467,1436802585350,12.663,-30.496,-1.831
468,1436802585369,12.663,-30.496,-1.831
469,1436802585390,12.663,-31.13,-2.162
470,1436802585410,12.663,-31.13,-2.162
471,1436802585430,12.663,-31.692,-1.815
472,1436802585450,12.663,-32.249,-1.815
473,1436802585470,12.663,-32.746,-1.815
474,1436802585491,12.663,-33.326,-1.815
475,1436802585510,12.663,-34.133,-1.815
476,1436802585530,12.663,-34.133,-1.815
477,1436802585550,12.663,-34.509,-1.815
478,1436802585570,12.663,-34.509,-1.815
479,1436802585589,12.663,-35.055,-1.815
480,1436802585611,12.663,-35.055,-1.815
481,1436802585632,12.663,-35.055,-2.209
482,1436802585654,12.345,-35.055,-2.209
483,1436802585671,12.345,-35.055,-3.269
484,1436802585691,12.345,-35.055,-4.255
485,1436802585712,12.345,-35.055,-5.297
486,1436802585732,11.703,-35.055,-6.294
487,1436802585757,10.978,-35.055,-7.637
488,1436802585800,10.293,-35.055,-8.326
489,1436802585801,9.153,-35.055,-9.062
490,1436802585811,8.024,-35.055,-9.477
491,1436802585837,7.423,-35.055,-10.063
492,1436802585850,6.561,-35.369,-10.426
493,1436802585872,5.844,-35.369,-10.426
494,1436802585890,5.221,-35.369,-10.426
495,1436802585912,4.377,-35.369,-10.426
496,1436802585931,3.903,-35.69,-10.095
497,1436802585952,3.111,-35.69,-9.617
498,1436802585970,1.638,-35.69,-9.126
499,1436802585990,0.625,-36.463,-8.547
500,1436802586012,-0.772,-37.066,-7.946
501,1436802586031,-2.496,-37.539,-7.946
502,1436802586051,-4.127,-37.539,-8.52
503,1436802586071,-5.734,-37.539,-7.827
504,1436802586090,-7.542,-37.539,-6.958
505,1436802586111,-8.671,-37.539,-5.928
506,1436802586134,-9.376,-37.539,-4.611
507,1436802586152,-10.566,-37.173,-3.453
508,1436802586192,-11.448,-37.173,-1.719
509,1436802586193,-12.001,-37.173,0.19
510,1436802586217,-12.576,-37.173,1.992
511,1436802586233,-12.939,-36.856,4.051
512,1436802586251,-12.623,-36.386,5.65
