id,attr_time,attr_x,attr_y,attr_z
1,1436802576023,-8.274,-41.592,10.093
2,1436802576024,-8.274,-41.592,10.093
3,1436802576049,-8.274,-41.592,10.093
4,1436802576060,-8.274,-41.592,10.093
5,1436802576079,-8.274,-41.592,10.093
6,1436802576098,-8.274,-41.592,10.093
7,1436802576118,-8.274,-41.592,10.093
8,1436802576151,-8.274,-41.592,10.093
9,1436802576161,-8.274,-41.592,10.093
10,1436802576182,-8.274,-41.592,10.093
11,1436802576198,-8.274,-41.592,10.093
12,1436802576220,-8.274,-41.592,10.093
13,1436802576239,-8.274,-41.592,10.093
14,1436802576259,-8.274,-41.592,10.093
15,1436802576291,-8.274,-41.592,10.093
16,1436802576298,-8.274,-41.592,10.093
17,1436802576320,-8.274,-41.592,10.093
18,1436802576345,-8.274,-41.592,10.093
19,1436802576359,-8.274,-41.592,10.093
20,1436802576382,-8.274,-41.592,10.093
21,1436802576402,-8.274,-41.592,10.093
22,1436802576421,-8.274,-41.592,10.093
23,1436802576439,-8.274,-41.592,10.093
24,1436802576459,-8.274,-41.592,10.093
25,1436802576479,-8.274,-41.592,10.093
26,1436802576499,-8.274,-41.592,10.093
27,1436802576520,-8.274,-41.592,10.093
28,1436802576540,-8.274,-41.592,10.093
29,1436802576559,-8.274,-41.592,10.093
30,1436802576585,-8.274,-41.592,10.093
31,1436802576602,-8.274,-41.592,10.093
32,1436802576620,-8.274,-41.592,10.093
33,1436802576640,-8.274,-41.592,10.093
34,1436802576665,-8.274,-41.592,10.093
35,1436802576680,-8.274,-41.592,10.093
36,1436802576699,-8.274,-41.592,10.093
37,1436802576719,-8.274,-41.592,10.093
38,1436802576739,-8.274,-41.592,10.093
39,1436802576766,-8.274,-41.592,10.093
40,1436802576780,-8.274,-41.592,10.093
41,1436802576800,-8.274,-41.592,10.093
42,1436802576822,-8.274,-41.592,10.093
43,1436802576842,-8.274,-41.592,10.093
44,1436802576906,-8.274,-41.592,10.093
45,1436802576907,-8.274,-41.592,10.093
46,1436802576908,-8.274,-41.592,10.093
47,1436802576919,-8.274,-41.592,10.093
48,1436802576944,-8.274,-41.592,10.093
49,1436802576960,-8.274,-41.592,10.093
50,1436802576983,-8.274,-41.592,10.093
51,1436802577004,-8.274,-41.592,10.093
52,1436802577021,-8.274,-41.592,10.093
53,1436802577039,-8.274,-41.592,10.093
54,1436802577061,-8.274,-41.592,10.093
55,1436802577091,-8.274,-41.592,10.093
56,1436802577121,-8.274,-41.592,10.093
57,1436802577122,-8.274,-41.592,10.093
58,1436802577182,-8.274,-41.592,10.093
59,1436802577183,-8.274,-41.592,10.093
60,1436802577184,-8.274,-41.592,10.093
61,1436802577225,-8.274,-41.592,10.093
62,1436802577226,-8.274,-41.592,10.093
63,1436802577239,-8.274,-41.592,10.093
64,1436802577259,-8.274,-41.592,10.093
65,1436802577280,-8.274,-41.592,10.093
66,1436802577300,-8.274,-41.592,10.093
67,1436802577322,-8.274,-41.592,10.093
68,1436802577340,-8.274,-41.592,10.093
69,1436802577360,-8.274,-41.592,10.093
70,1436802577380,-8.274,-41.592,10.093
71,1436802577399,-8.274,-41.592,10.093
72,1436802577420,-8.274,-41.592,10.093
73,1436802577441,-8.274,-41.592,10.093
74,1436802577460,-8.274,-41.592,10.093
75,1436802577481,-8.274,-41.592,10.093
76,1436802577500,-8.274,-41.592,10.093
77,1436802577521,-8.274,-41.592,10.093
78,1436802577543,-8.274,-41.592,10.093
79,1436802577562,-8.274,-41.592,10.093
80,1436802577583,-8.274,-41.592,10.093
81,1436802577647,-8.274,-41.592,10.093
82,1436802577648,-8.274,-41.592,10.093
83,1436802577659,-8.274,-41.592,10.093
84,1436802577660,-8.274,-41.592,10.093
85,1436802577681,-8.274,-41.592,10.093
86,1436802577700,-8.274,-41.592,10.093
87,1436802577719,-8.274,-41.592,10.093
88,1436802577740,-8.274,-41.592,10.093
89,1436802577763,-8.274,-41.592,10.093
90,1436802577784,-8.274,-41.592,10.093
91,1436802577801,-8.274,-41.592,10.093
92,1436802577823,-8.274,-41.592,10.093
93,1436802577843,-8.274,-41.592,10.093
94,1436802577862,-8.274,-41.592,10.093
95,1436802577883,-8.274,-41.592,10.093
96,1436802577904,-8.274,-41.592,10.093
97,1436802577920,-8.274,-41.592,10.093
98,1436802577943,-8.274,-41.592,10.093
99,1436802577961,-8.274,-41.592,10.093
100,1436802577981,-8.274,-41.592,10.093
101,1436802578003,-8.274,-41.592,10.093
102,1436802578024,-8.274,-41.592,10.093
103,1436802578043,-8.274,-41.592,10.093
104,1436802578062,-8.274,-41.592,10.093
105,1436802578084,-8.274,-41.592,10.093
106,1436802578102,-8.274,-41.592,10.093
107,1436802578122,-8.274,-41.592,10.093
108,1436802578139,-8.274,-41.592,10.093
109,1436802578162,-8.274,-41.592,10.093
110,1436802578179,-8.274,-41.592,10.093
111,1436802578200,-8.274,-41.592,10.093
112,1436802578227,-8.274,-41.592,10.093
113,1436802578242,-8.274,-41.592,10.093
114,1436802578261,-8.274,-41.592,10.093
115,1436802578286,-8.274,-41.592,10.093
116,1436802578368,-8.274,-41.592,10.093
117,1436802578369,-8.274,-41.592,10.093
118,1436802578370,-8.274,-41.592,10.093
119,1436802578371,-8.274,-41.592,10.093
120,1436802578383,-8.274,-41.592,10.093
121,1436802578409,-8.274,-41.592,10.093
122,1436802578422,-8.274,-41.592,10.093
123,1436802578441,-8.274,-41.592,10.093
124,1436802578461,-8.274,-41.592,10.093
125,1436802578482,-8.274,-41.592,10.093
126,1436802578503,-8.274,-41.592,10.093
127,1436802578522,-8.274,-41.592,10.093
128,1436802578541,-8.274,-41.592,10.093
129,1436802578563,-8.274,-41.592,10.093
130,1436802578583,-8.274,-41.592,10.093
131,1436802578603,-8.274,-41.592,10.093
132,1436802578624,-8.274,-41.592,10.093
133,1436802578645,-8.274,-41.592,10.093
134,1436802578663,-8.274,-41.592,10.093
135,1436802578683,-8.274,-41.592,10.093
136,1436802578702,-8.274,-41.592,10.093
137,1436802578724,-8.274,-41.592,10.093
138,1436802578748,-8.274,-41.592,10.093
139,1436802578764,-8.274,-41.592,10.093
140,1436802578784,-8.274,-41.592,10.093
141,1436802578802,-8.274,-41.592,10.093
142,1436802578824,-8.274,-41.592,10.093
143,1436802578845,-8.274,-41.592,10.093
144,1436802578861,-8.274,-41.592,10.093
145,1436802578881,-8.274,-41.592,10.093
146,1436802578901,-8.274,-41.592,10.093
147,1436802578928,-8.274,-41.592,10.093
148,1436802578948,-8.274,-41.592,10.093
149,1436802578969,-8.274,-41.592,10.093
150,1436802578984,-8.274,-41.592,10.093
151,1436802579093,-8.274,-41.592,10.093
152,1436802579094,-8.274,-41.592,10.093
153,1436802579095,-8.274,-41.592,10.093
154,1436802579122,-8.274,-41.592,10.093
155,1436802579123,-8.274,-41.592,10.093
156,1436802579124,-8.274,-41.592,10.093
157,1436802579125,-8.274,-41.592,10.093
158,1436802579146,-8.274,-41.592,10.093
159,1436802579167,-8.274,-41.592,10.093
160,1436802579182,-8.274,-41.592,10.093
161,1436802579203,-8.274,-41.592,10.093
162,1436802579225,-8.274,-41.592,10.093
163,1436802579243,-8.274,-41.592,10.093
164,1436802579263,-8.274,-41.592,10.093
165,1436802579282,-8.274,-41.592,10.093
166,1436802579302,-8.274,-41.592,10.093
167,1436802579325,-8.274,-41.592,10.093
168,1436802579345,-8.274,-41.592,10.093
169,1436802579364,-8.274,-41.592,10.093
170,1436802579383,-8.274,-41.592,10.093
171,1436802579404,-8.274,-41.592,10.093
172,1436802579425,-8.274,-41.592,10.093
173,1436802579445,-8.274,-41.592,10.093
174,1436802579464,-8.274,-41.592,10.093
175,1436802579483,-8.274,-41.592,9.757
176,1436802579504,-8.274,-41.592,9.757
177,1436802579525,-8.274,-41.592,9.757
178,1436802579546,-8.274,-41.592,9.757
179,1436802579563,-7.955,-41.592,9.757
180,1436802579583,-7.955,-41.592,9.757
181,1436802579602,-7.955,-41.592,9.757
182,1436802579627,-7.955,-41.909,9.757
183,1436802579647,-7.955,-41.909,9.757
184,1436802579668,-7.955,-41.909,9.757
185,1436802579685,-7.955,-41.909,9.757
186,1436802579702,-7.955,-41.909,9.757
187,1436802579722,-7.955,-41.909,9.757
188,1436802579742,-7.955,-41.909,9.757
189,1436802579765,-7.955,-41.909,9.757
190,1436802579784,-7.955,-41.909,9.757
191,1436802579852,-7.955,-41.909,9.757
192,1436802579853,-7.955,-41.909,9.757
193,1436802579854,-7.955,-41.909,9.757
194,1436802579862,-7.955,-41.909,9.757
195,1436802579891,-7.955,-41.909,9.757
196,1436802579903,-7.955,-41.909,9.757
197,1436802579923,-7.955,-41.909,9.757
198,1436802579945,-7.955,-41.909,9.757
199,1436802579963,-7.955,-41.909,9.757
200,1436802579983,-7.955,-41.909,9.757
201,1436802580007,-7.955,-41.909,9.757
202,1436802580023,-7.955,-41.909,9.757
203,1436802580044,-7.955,-41.909,9.757
204,1436802580065,-7.955,-41.909,9.757
205,1436802580085,-7.955,-41.909,9.757
206,1436802580105,-7.955,-41.909,9.757
207,1436802580125,-7.955,-41.909,9.757
208,1436802580146,-7.955,-41.909,9.757
209,1436802580165,-7.955,-41.909,9.757
210,1436802580186,-7.955,-41.909,9.757
211,1436802580203,-7.955,-41.909,9.757
212,1436802580227,-7.955,-41.909,9.757
213,1436802580246,-7.955,-41.909,9.757
214,1436802580266,-7.955,-41.909,9.757
215,1436802580285,-7.955,-41.909,9.757
216,1436802580302,-7.955,-41.909,9.757
217,1436802580324,-7.955,-41.909,9.757
218,1436802580346,-7.955,-41.909,9.757
219,1436802580366,-7.955,-41.909,9.757
220,1436802580386,-7.955,-41.909,9.757
221,1436802580405,-7.955,-41.909,9.757
222,1436802580423,-7.955,-41.909,9.757
223,1436802580443,-7.955,-41.909,9.757
224,1436802580464,-7.955,-41.909,9.757
225,1436802580485,-7.955,-41.909,9.757
226,1436802580505,-7.955,-41.909,9.757
227,1436802580559,-7.955,-41.909,9.757
228,1436802580560,-7.955,-41.909,9.757
229,1436802580567,-7.955,-41.909,9.757
230,1436802580583,-7.955,-41.909,9.757
231,1436802580605,-7.955,-41.909,9.757
232,1436802580623,-7.955,-41.909,9.757
233,1436802580643,-7.955,-41.909,9.757
234,1436802580667,-7.955,-41.909,9.757
235,1436802580684,-7.955,-41.909,9.757
236,1436802580704,-7.955,-41.909,9.757
237,1436802580725,-7.955,-41.909,9.757
238,1436802580745,-7.955,-41.909,9.757
239,1436802580768,-7.955,-41.909,9.757
240,1436802580786,-7.955,-41.909,9.757
241,1436802580807,-7.955,-41.909,9.757
242,1436802580826,-7.955,-41.909,9.757
243,1436802580846,-7.955,-41.909,9.757
244,1436802580866,-7.955,-41.909,9.757
245,1436802580886,-7.955,-41.909,9.757
246,1436802580906,-7.955,-41.909,9.757
247,1436802580926,-7.955,-41.909,9.757
248,1436802580946,-7.955,-41.909,9.757
249,1436802580965,-7.955,-41.909,9.757
250,1436802580985,-7.955,-41.909,9.757
251,1436802581006,-7.955,-41.909,9.757
252,1436802581024,-7.955,-41.909,9.757
253,1436802581048,-7.955,-41.909,9.757
254,1436802581063,-7.955,-41.909,9.757
255,1436802581092,-7.955,-41.909,9.757
256,1436802581108,-7.955,-41.909,9.757
257,1436802581129,-7.955,-41.909,9.757
258,1436802581146,-7.955,-41.909,9.757
259,1436802581163,-7.955,-41.909,9.757
260,1436802581185,-7.955,-41.909,9.757
261,1436802581206,-7.955,-41.909,9.757
262,1436802581233,-7.955,-41.909,9.757
263,1436802581304,-7.955,-41.909,9.757
264,1436802581305,-7.955,-41.909,9.757
265,1436802581306,-7.955,-41.909,9.757
266,1436802581307,-7.955,-41.909,9.757
267,1436802581324,-7.955,-41.909,9.757
268,1436802581344,-7.955,-41.909,9.757
269,1436802581363,-7.955,-41.909,9.757
270,1436802581385,-7.955,-41.909,9.757
271,1436802581454,-7.955,-41.909,9.757
272,1436802581455,-7.955,-41.909,9.757
273,1436802581460,-7.955,-41.909,9.757
274,1436802581466,-7.955,-41.909,9.757
275,1436802581484,-7.955,-41.909,9.757
276,1436802581506,-7.955,-41.909,9.757
277,1436802581525,-7.955,-41.909,9.757
278,1436802581547,-7.955,-41.909,9.757
279,1436802581567,-7.955,-41.909,9.757
280,1436802581587,-7.955,-41.909,9.757
281,1436802581633,-7.955,-41.909,9.757
282,1436802581634,-7.955,-41.909,9.757
283,1436802581647,-7.955,-41.909,9.757
284,1436802581667,-7.955,-41.909,9.757
285,1436802581687,-7.955,-41.909,9.757
286,1436802581707,-7.955,-41.909,9.757
287,1436802581726,-7.955,-41.909,9.757
288,1436802581745,-7.955,-41.909,9.757
289,1436802581767,-7.955,-41.909,9.757
290,1436802581785,-7.955,-41.909,9.757
291,1436802581806,-7.955,-41.909,9.757
292,1436802581827,-7.955,-41.909,9.757
293,1436802581848,-7.955,-41.909,9.757
294,1436802581881,-7.955,-41.909,9.757
295,1436802581900,-7.955,-41.909,9.757
296,1436802581904,-7.955,-41.909,9.757
297,1436802581924,-7.955,-41.909,9.757
298,1436802581944,-7.955,-41.909,9.757
299,1436802581966,-7.955,-41.909,9.757
300,1436802581991,-7.955,-41.909,9.757
301,1436802582070,-7.955,-41.909,9.757
302,1436802582071,-7.955,-41.909,9.757
303,1436802582072,-7.955,-41.909,9.757
304,1436802582073,-7.955,-41.596,9.757
305,1436802582094,-7.955,-41.596,9.757
306,1436802582116,-7.955,-41.596,9.757
307,1436802582127,-8.259,-41.596,9.757
308,1436802582146,-8.259,-41.596,9.757
309,1436802582166,-8.259,-41.596,9.757
310,1436802582184,-8.259,-41.596,9.757
311,1436802582209,-8.259,-41.596,9.757
312,1436802582226,-8.259,-41.596,9.757
313,1436802582246,-8.259,-41.596,9.757
314,1436802582271,-8.259,-41.596,9.757
315,1436802582289,-8.259,-41.596,9.757
316,1436802582305,-8.259,-41.596,9.757
317,1436802582328,-8.259,-41.596,9.757
318,1436802582346,-8.259,-41.596,9.757
319,1436802582368,-8.259,-41.596,9.757
320,1436802582388,-8.259,-41.596,9.757
321,1436802582408,-8.259,-41.596,9.757
322,1436802582428,-8.259,-41.596,9.757
323,1436802582447,-8.259,-41.596,9.757
324,1436802582468,-8.259,-41.596,9.757
325,1436802582488,-8.259,-41.596,9.757
326,1436802582507,-8.259,-41.918,9.757
327,1436802582527,-8.259,-41.918,9.757
328,1436802582545,-8.259,-41.918,9.757
329,1436802582567,-8.259,-41.918,9.757
330,1436802582588,-8.259,-41.918,9.757
331,1436802582607,-7.952,-41.918,9.757
332,1436802582627,-7.952,-41.918,9.757
333,1436802582649,-7.952,-41.918,9.757
334,1436802582668,-7.952,-41.918,9.757
335,1436802582688,-7.952,-41.918,9.757
336,1436802582707,-7.952,-41.918,9.757
337,1436802582727,-7.952,-41.918,9.757
338,1436802582746,-7.952,-41.918,9.757
339,1436802582773,-7.952,-41.918,9.757
340,1436802582845,-7.952,-41.918,9.757
341,1436802582846,-7.952,-41.918,9.757
342,1436802582847,-7.952,-41.918,9.757
343,1436802582848,-7.952,-41.918,9.757
344,1436802582866,-7.952,-41.918,9.757
345,1436802582886,-7.952,-41.918,9.757
346,1436802582906,-7.952,-41.918,9.757
347,1436802582925,-7.952,-41.918,9.757
348,1436802582949,-7.952,-41.918,9.757
349,1436802582965,-7.952,-41.918,9.757
350,1436802582988,-7.952,-41.918,9.757
351,1436802583013,-7.952,-41.918,9.757
352,1436802583038,-7.952,-41.918,9.757
353,1436802583047,-7.952,-41.918,9.757
354,1436802583065,-7.952,-41.918,9.757
355,1436802583087,-7.952,-41.918,9.757
356,1436802583108,-7.952,-41.918,9.757
357,1436802583129,-7.952,-41.918,9.757
358,1436802583148,-7.952,-41.918,9.757
359,1436802583167,-7.952,-41.918,9.757
360,1436802583189,-7.952,-41.918,9.757
361,1436802583209,-7.952,-41.615,9.757
362,1436802583228,-7.952,-41.615,9.757
363,1436802583250,-7.952,-41.615,9.757
364,1436802583265,-7.952,-41.615,9.757
365,1436802583289,-7.952,-41.615,9.757
366,1436802583309,-7.952,-41.615,9.757
367,1436802583329,-7.952,-41.615,9.757
368,1436802583348,-7.952,-41.615,9.757
369,1436802583368,-7.952,-41.615,9.757
370,1436802583389,-7.952,-41.615,9.757
371,1436802583409,-7.952,-41.615,9.757
372,1436802583429,-7.952,-41.615,9.757
373,1436802583449,-7.952,-41.615,9.757
374,1436802583470,-7.952,-41.615,9.757
375,1436802583489,-7.952,-41.615,9.757
376,1436802583507,-7.952,-41.615,9.757
377,1436802583533,-7.952,-41.615,9.757
378,1436802583603,-7.952,-41.615,9.757
379,1436802583606,-7.952,-41.615,9.757
380,1436802583607,-7.952,-41.615,9.757
381,1436802583608,-7.952,-41.615,9.757
382,1436802583627,-7.952,-41.615,9.757
383,1436802583646,-7.952,-41.615,9.757
384,1436802583666,-7.952,-41.615,9.757
385,1436802583686,-7.952,-41.615,9.757
386,1436802583710,-7.952,-41.615,9.757
387,1436802583727,-7.952,-41.615,9.757
388,1436802583747,-7.952,-41.615,9.757
389,1436802583766,-7.952,-41.615,9.757
390,1436802583787,-8.259,-41.615,9.757
391,1436802583808,-8.259,-41.615,9.757
392,1436802583829,-8.259,-41.615,9.757
393,1436802583849,-8.259,-41.615,9.757
394,1436802583869,-8.259,-41.615,9.757
395,1436802583889,-8.259,-41.615,9.757
396,1436802583908,-8.259,-41.615,9.757
397,1436802583930,-8.259,-41.615,9.757
398,1436802583949,-8.259,-41.615,9.757
399,1436802583969,-8.259,-41.615,9.757
400,1436802583988,-8.259,-41.615,9.757
401,1436802584017,-8.259,-41.615,9.757
402,1436802584036,-8.259,-41.615,9.757
403,1436802584048,-8.259,-41.615,9.757
404,1436802584069,-8.259,-41.615,9.757
405,1436802584088,-8.259,-41.615,9.757
406,1436802584111,-8.259,-41.615,9.757
407,1436802584129,-8.259,-41.615,9.757
408,1436802584149,-8.259,-41.615,9.757
409,1436802584169,-8.259,-41.615,9.757
410,1436802584189,-8.259,-41.615,9.757
411,1436802584208,-8.259,-41.615,9.757
412,1436802584230,-8.259,-41.615,9.757
413,1436802584248,-8.259,-41.615,9.757
414,1436802584277,-8.259,-41.615,9.757
415,1436802584347,-8.259,-41.615,9.757
416,1436802584348,-8.259,-41.615,9.757
417,1436802584349,-8.259,-41.615,9.757
418,1436802584350,-8.259,-41.615,9.757
419,1436802584367,-8.259,-41.615,9.757
420,1436802584387,-8.259,-41.615,9.757
421,1436802584406,-8.259,-41.615,9.757
422,1436802584426,-8.259,-41.615,9.757
423,1436802584448,-8.259,-41.615,9.757
424,1436802584468,-8.259,-41.615,9.757
425,1436802584488,-8.259,-41.615,9.757
426,1436802584508,-8.259,-41.615,9.757
427,1436802584529,-8.259,-41.615,9.757
428,1436802584549,-8.259,-41.615,9.757
429,1436802584570,-8.259,-41.615,9.757
430,1436802584590,-8.259,-41.615,9.757
431,1436802584610,-8.259,-41.615,9.757
432,1436802584627,-8.259,-41.615,9.757
433,1436802584650,-8.259,-41.615,10.06
434,1436802584669,-8.259,-41.615,10.06
435,1436802584690,-8.259,-41.615,10.06
436,1436802584710,-8.259,-41.615,10.06
437,1436802584730,-8.259,-41.615,10.06
438,1436802584747,-8.259,-41.615,10.06
439,1436802584770,-8.259,-41.615,10.06
440,1436802584787,-8.259,-41.615,10.06
441,1436802584807,-8.259,-41.615,10.06
442,1436802584827,-8.259,-41.615,10.06
443,1436802584851,-8.259,-41.615,10.06
444,1436802584871,-8.259,-41.615,10.06
445,1436802584892,-8.259,-41.615,10.06
446,1436802584910,-8.259,-41.615,10.06
447,1436802584927,-8.259,-41.615,10.06
448,1436802584947,-8.259,-41.615,10.06
449,1436802584967,-8.259,-41.615,10.06
450,1436802585101,-8.259,-41.615,10.06
451,1436802585102,-8.259,-41.615,10.06
452,1436802585103,-8.259,-41.615,10.401
453,1436802585104,-8.259,-41.615,10.401
454,1436802585105,-8.259,-41.615,10.401
455,1436802585106,-8.259,-41.615,10.401
456,1436802585118,-8.259,-41.615,10.401
457,1436802585127,-8.259,-41.615,10.401
458,1436802585147,-8.259,-41.615,10.716
459,1436802585167,-8.259,-41.615,10.716
460,1436802585189,-8.259,-41.615,10.716
461,1436802585207,-8.259,-41.615,10.716
462,1436802585228,-8.259,-41.615,10.716
463,1436802585249,-8.259,-41.615,10.716
464,1436802585268,-8.259,-41.615,10.716
465,1436802585289,-8.259,-41.302,10.716
466,1436802585309,-7.951,-41.302,11.045
467,1436802585330,-7.951,-41.302,11.045
468,1436802585349,-7.951,-41.302,11.045
469,1436802585370,-7.951,-41.302,11.045
470,1436802585390,-7.951,-41.302,11.045
471,1436802585410,-7.951,-41.302,11.045
472,1436802585431,-7.638,-41.302,11.045
473,1436802585448,-7.638,-41.302,11.045
474,1436802585470,-7.638,-41.302,11.045
475,1436802585488,-7.638,-41.302,11.045
476,1436802585508,-7.325,-41.302,11.045
477,1436802585531,-7.325,-41.302,11.405
478,1436802585548,-7.325,-41.302,11.405
479,1436802585568,-7.325,-41.302,11.405
480,1436802585588,-6.938,-41.302,11.405
481,1436802585612,-6.938,-41.302,11.715
482,1436802585633,-6.938,-41.302,11.715
483,1436802585653,-6.938,-41.302,11.715
484,1436802585670,-6.938,-41.302,12.138
485,1436802585687,-6.567,-41.302,12.138
486,1436802585708,-6.567,-41.302,12.457
487,1436802585728,-6.567,-41.302,12.457
488,1436802585749,-6.567,-40.942,13.125
489,1436802585817,-6.567,-40.942,13.932
490,1436802585818,-6.567,-40.942,13.932
491,1436802585819,-6.567,-40.502,14.305
492,1436802585829,-6.567,-40.502,14.305
493,1436802585849,-6.567,-40.159,14.305
494,1436802585871,-6.567,-40.159,14.916
495,1436802585888,-6.567,-39.286,15.242
496,1436802585908,-6.567,-38.635,15.242
497,1436802585930,-6.878,-37.69,15.242
498,1436802585949,-6.878,-36.822,15.242
499,1436802585969,-7.225,-36.271,15.242
500,1436802585988,-7.554,-35.237,15.242
501,1436802586008,-8.172,-34.893,15.634
502,1436802586028,-8.766,-34.075,15.634
503,1436802586048,-8.766,-33.462,16.032
504,1436802586070,-8.766,-33.039,16.032
505,1436802586088,-8.766,-33.039,16.342
506,1436802586109,-8.093,-33.039,16.342
507,1436802586130,-7.138,-33.988,16.65
508,1436802586150,-5.69,-34.57,16.65
