id,attr_time,attr_db
1,1436803440260,65.2895781849627
2,1436803440932,62.4539150462361
3,1436803441663,62.2184030030721
4,1436803442411,63.3868121502307
5,1436803443143,66.1074816117289
6,1436803443875,62.4271901930338
7,1436803444591,66.3834794964849
8,1436803445338,66.7577289340482
9,1436803446071,57.4870301624142
10,1436803446771,60.2897701400243
11,1436803447443,61.9864172055003
12,1436803448157,57.9190658981985
13,1436803448885,63.6435128632849
14,1436803449616,49.3875507513756
15,1436803450370,50.2798566966612
16,1436803451122,53.2925821223723
17,1436803451851,53.904542352927
18,1436803452594,49.2751549315643
19,1436803453367,54.3132056265729
20,1436803454076,73.496844345065
21,1436803454815,71.4921732859383
22,1436803455480,56.0813711349865
23,1436803456205,65.01950128701
24,1436803456926,60.7391681743602
25,1436803457606,57.4117196152018
26,1436803458281,58.0073204089855
27,1436803459001,55.7930475338913
28,1436803459729,54.7963829328779
29,1436803460453,55.6030732441243
30,1436803461194,63.0549677948102
31,1436803461936,58.1651231448796
32,1436803462717,63.1485234767757
33,1436803463458,61.7719404763412
34,1436803464183,52.5276845917929
35,1436803464922,64.6036802376338
36,1436803465697,52.3784452330918
37,1436803466440,51.8312402880983
38,1436803467169,56.7302699772524
39,1436803467848,53.3437182773355
40,1436803468595,56.3185413227327
41,1436803469357,59.3815952459172
42,1436803470120,53.1932263497418
43,1436803470858,52.9675462587456
44,1436803471591,56.1003677641573
45,1436803472357,55.3950087519654
46,1436803473032,54.7060932207736
47,1436803473799,56.5899580497147
48,1436803474574,55.1242478927731
49,1436803475228,53.9485321443676
50,1436803475872,56.4485741258894
51,1436803476627,56.1871742470278
52,1436803477347,54.5979774659506
53,1436803478063,54.0107156377887
54,1436803478779,54.5676081036398
55,1436803479498,54.2599100626099
56,1436803480249,57.2652786245434
57,1436803480965,55.9187616743269
58,1436803481671,60.7506972035234
59,1436803482387,53.398678804266
60,1436803483123,54.4630232700734
61,1436803483929,55.7032362737076
62,1436803484656,56.7905848630181
63,1436803485410,61.3770206619166
64,1436803486120,54.4774691323164
65,1436803486821,59.995499049992
66,1436803487554,66.4533336644416
67,1436803488267,61.0991298059986
68,1436803488989,64.6918111022376
69,1436803489703,54.573256166699
70,1436803490441,54.2817760395325
71,1436803491160,55.6461073857649
72,1436803491878,57.4149485578081
73,1436803492607,56.2500786990457
74,1436803493329,56.8110694501521
75,1436803494056,56.2153755791042
76,1436803494774,56.0495743553406
77,1436803495477,55.7938633718978
78,1436803497179,50.8966243907874
79,1436803497832,56.2661795273548
80,1436803498512,57.5307352367721
81,1436803499245,55.809806654835
82,1436803499972,56.0200235669497
83,1436803500744,56.5880803259446
84,1436803501456,57.3580927816791
85,1436803502155,56.8837206332515
86,1436803503532,56.514254523405
87,1436803504270,57.9650932288012
88,1436803505000,59.3514564820463
89,1436803505710,57.1802406925721
90,1436803506428,57.3626810611191
91,1436803507159,54.4605537511142
92,1436803507876,52.375702006784
93,1436803508563,54.5899573888785
94,1436803509242,53.172448396328
95,1436803510674,54.0402984846761
96,1436803511360,60.4415165691567
97,1436803512062,56.1497849578654
98,1436803512810,56.0098929144236
99,1436803513523,58.4152123034726
100,1436803515361,62.7096154280616
101,1436803516012,61.3937076403683
102,1436803516717,57.3880392709237
103,1436803517397,57.8406125993951
104,1436803518120,56.5854421190297
105,1436803518850,56.1056930363321
106,1436803519487,55.9789954205417
107,1436803520248,55.8586831837845
108,1436803520965,56.6357611758862
109,1436803521679,55.4006448318203
110,1436803522440,55.5215781957432
111,1436803523127,54.7974471006387
112,1436803523849,54.7803357699461
113,1436803524577,56.9203274080384
114,1436803525354,57.2519123763235
115,1436803526062,58.3050179471813
116,1436803526820,64.7190340862476
117,1436803527530,55.1865273959383
118,1436803528251,58.8020276240609
119,1436803528996,64.6271429467471
120,1436803529657,54.8740693397154
121,1436803530384,55.2040661819651
122,1436803531081,59.235224998424
123,1436803531798,54.5184848131375
124,1436803532497,55.4932456483174
125,1436803533198,56.4419393650928
126,1436803533872,55.5953119986504
127,1436803534590,54.9517573974358
128,1436803535298,55.0702010085602
129,1436803536070,53.1514933667829
130,1436803536791,54.6656482817276
131,1436803537519,55.701321570272
132,1436803538249,57.9790607921291
133,1436803538936,56.660186234547
134,1436803539614,56.7004684801574
135,1436803540392,57.7162805136085
136,1436803541106,57.7676269767566
137,1436803541850,57.6772128341579
138,1436803542591,60.0038303769145
139,1436803543366,61.1672667788392
140,1436803544151,55.939304878001
141,1436803544861,55.0240338075611
142,1436803545505,52.1770409153711
143,1436803546223,53.1527213090336
144,1436803546910,60.5888087955999
145,1436803547643,53.995892288124
146,1436803548336,68.399003580505
147,1436803549027,59.3883438090628
148,1436803549783,53.6070875214321
149,1436803550457,70.8504306729613
150,1436803551229,53.8797420656677
151,1436803551963,65.6181722329226
152,1436803552677,55.5845237605167
153,1436803553416,64.6205267231686
154,1436803554078,62.5152111271797
155,1436803554736,64.5986946226072
156,1436803555498,59.9527194069646
157,1436803556232,52.2609844205075
158,1436803556983,56.5693113020715
159,1436803557739,63.6004869658042
160,1436803558445,52.5283234268611
161,1436803559156,53.435844373446
162,1436803559851,62.243706053345
163,1436803560554,63.3411249646671
164,1436803561302,52.8890490869556
165,1436803562021,53.997315942672
166,1436803562757,56.1843126490648
167,1436803563476,57.4822043582688
168,1436803564233,57.7133268990143
169,1436803564954,57.7843265902382
170,1436803565669,59.5024388760098
171,1436803566403,58.0031547291844
172,1436803567146,55.3064468676778
173,1436803567890,54.4049517972427
174,1436803568624,50.0288622208681
175,1436803569326,47.7683011828849
176,1436803569980,50.9879806146036
177,1436803570684,49.7794321646353
178,1436803571401,50.4544751139536
179,1436803572120,53.0741994224548
180,1436803572846,48.6606322602287
181,1436803573572,51.4021548716188
182,1436803574337,50.2082092168215
183,1436803575045,48.9302191310332
184,1436803575758,51.7852805158834
185,1436803576572,51.9948072986733
186,1436803577234,49.4125595351061
187,1436803577969,48.5707382338413
188,1436803578700,56.2576918707657
189,1436803579433,47.9775816272028
190,1436803580116,50.5409751253915
191,1436803580714,48.1409896688802
192,1436803581370,51.4284719209468
193,1436803582087,48.8425122381002
194,1436803582811,50.2703973843803
195,1436803583521,49.2543954514174
196,1436803584288,49.8130731083878
197,1436803584993,51.2436840673041
198,1436803585716,55.1643004509181
199,1436803586472,52.4575595133397
200,1436803587209,49.646982947224
201,1436803587929,51.0635554592272
202,1436803588643,49.9875584389625
203,1436803589363,51.4105522355734
204,1436803590095,51.8773462097361
205,1436803590796,50.970209430955
206,1436803591472,52.864373902461
207,1436803592178,53.1175157577841
208,1436803592898,51.933856601737
209,1436803593617,50.2982581702374
210,1436803594343,59.3190578927529
211,1436803595051,51.0345803879246
212,1436803595777,53.2524002723754
213,1436803596484,52.5591789526192
214,1436803597218,65.5851871379541
215,1436803597932,53.9039246607014
216,1436803598662,52.3551623986459
217,1436803599393,54.2309196454654
218,1436803600112,63.1555468104332
219,1436803600802,54.739746552273
220,1436803601461,50.2217918344128
221,1436803602189,52.2277929703343
222,1436803602908,55.1500803829061
223,1436803603655,51.3173285227345
224,1436803604410,54.9006053117682
225,1436803605139,59.3189868371669
226,1436803605851,65.1445671508303
227,1436803606637,55.278604397148
228,1436803607391,56.4404111691603
229,1436803608111,59.5416409332193
230,1436803608835,66.4428868935512
231,1436803609546,54.8143461950179
232,1436803610264,59.2501637589339
233,1436803610954,55.945710487698
234,1436803611597,59.5080777959642
235,1436803612315,63.0962379641407
236,1436803613036,62.7195028353707
237,1436803613758,55.6921833166374
238,1436803614456,52.9273432353834
239,1436803615196,56.6136655112924
240,1436803615853,53.2124861310733
241,1436803616545,54.8690560300711
242,1436803617204,54.0308812035007
243,1436803617878,60.5731110605032
244,1436803618602,59.7893217677278
245,1436803619333,66.020934349027
246,1436803620076,66.5123300224429
247,1436803620827,55.1604881756312
248,1436803621501,56.1114909671671
249,1436803622253,64.5872772499278
250,1436803622958,65.590612960414
251,1436803623684,69.5531345572481
252,1436803624396,70.7973220182859
253,1436803625122,53.3820997907634
254,1436803625847,64.4418139394695
255,1436803626557,62.246262303015
256,1436803627288,50.3475801628408
257,1436803628013,61.403507412435
258,1436803628722,67.5072445068285
259,1436803629455,53.1888990578911
260,1436803630183,50.1510228462054
261,1436803630902,59.1416402619503
262,1436803631607,62.0835643920477
263,1436803632288,53.9980059136001
264,1436803633012,53.2085631291141
265,1436803633724,70.6326861768569
266,1436803634469,54.2732434710919
267,1436803635237,56.4645522842702
268,1436803635939,53.6541858800127
269,1436803636704,58.9039657211946
270,1436803637462,55.0396644176898
271,1436803638179,57.5074157971798
272,1436803638913,62.7603811256804
273,1436803639640,55.0606984359102
274,1436803640343,53.3912641983132
275,1436803641061,65.3199456970388
276,1436803641746,60.5853018777122
277,1436803642461,53.6304668900131
278,1436803643210,58.5434868364246
279,1436803643917,53.4326688752376
280,1436803644654,62.7615777357695
281,1436803645372,69.7053675899074
282,1436803646047,56.437951508891
283,1436803646721,60.4832129407405
284,1436803647456,67.5663354304207
285,1436803648187,52.7786885551929
286,1436803648901,56.0620223753682
287,1436803649630,55.3433279603115
288,1436803650370,65.5815133573982
289,1436803651081,53.9572046714654
290,1436803651786,59.3152164717254
291,1436803652418,53.8043138980166
292,1436803653095,52.9003762087316
293,1436803653819,58.7572675604376
294,1436803654546,55.8499672800812
295,1436803655302,59.5910163118634
296,1436803656008,61.8506085148907
297,1436803656747,70.1774395707331
298,1436803657482,56.5076261964297
299,1436803658211,53.6285845068309
300,1436803658927,54.0787947996351
301,1436803659660,72.3702050216311
302,1436803660400,54.4324110008053
303,1436803661117,54.1608474732618
304,1436803661834,54.7565288062708
305,1436803662512,56.5676197020072
306,1436803663269,64.7379448424254
307,1436803664010,55.7598156396576
308,1436803664747,68.3718309507098
309,1436803665468,60.3207889319979
310,1436803666185,64.016932259614
311,1436803666876,64.4639649159152
312,1436803667546,66.4847322649481
313,1436803668205,59.5281406419362
314,1436803668941,66.2196395711357
315,1436803669679,66.4954372688824
316,1436803670410,69.5563944569653
317,1436803671125,69.1031600158635
318,1436803671861,62.6953328514348
319,1436803672543,59.8450962212937
320,1436803673208,67.9731062219796
321,1436803673920,54.8467430323879
322,1436803674642,53.8225318894138
323,1436803675378,52.6221897817585
324,1436803676073,57.5606240791493
325,1436803676789,65.2457900454056
326,1436803677509,49.3021272153517
327,1436803678197,50.1739942676487
328,1436803678926,48.7256573487821
329,1436803679658,59.573125202296
330,1436803680404,49.5615538397182
331,1436803681139,49.2390938321024
332,1436803681884,49.5400919107149
333,1436803682595,56.9712542203189
334,1436803683266,67.0911709959967
335,1436803684006,69.0989770268011
336,1436803684748,51.3015663950622
337,1436803685467,68.5434587518297
338,1436803686210,61.4427065196692
339,1436803686921,54.2946858653628
340,1436803687633,50.2421343171205
341,1436803688421,64.2168323032664
342,1436803689141,58.763574099255
343,1436803689847,51.3409036103496
344,1436803690531,49.3125433176643
345,1436803691263,51.9166391612436
346,1436803691989,68.2209688359363
347,1436803692679,53.6322349414536
348,1436803693313,54.1981739766058
349,1436803694043,57.621037333289
350,1436803694778,55.6180563886529
351,1436803695516,68.9875198122837
352,1436803696275,58.5918861957461
353,1436803696969,56.957404984639
354,1436803697566,59.9127136043172
355,1436803698176,51.219825562751
356,1436803698896,51.1580100738458
357,1436803699586,70.3525552273464
358,1436803701261,49.1076946067662
359,1436803701976,59.4992892131316
360,1436803702695,65.5479824700515
361,1436803703425,50.2554317965615
362,1436803704147,60.2298427071379
363,1436803704885,58.4428251959862
364,1436803705617,63.6554712574446
365,1436803706369,71.3719301467763
366,1436803707040,70.3576135459839
367,1436803707717,55.4503365384805
368,1436803708435,66.9220546810391
369,1436803709165,66.7244893843249
370,1436803709862,56.183327004484
371,1436803710565,57.2297906196087
372,1436803712071,52.3501151283591
373,1436803712817,53.4113622887075
374,1436803713479,75.5065814712659
375,1436803714210,58.6246529015946
376,1436803714935,60.0044253748563
377,1436803715656,66.861682829863
378,1436803716374,65.7059879724762
379,1436803717039,72.4276675673477
380,1436803717688,60.0929230493181
381,1436803718361,62.2322038181158
382,1436803719104,64.6624404436711
383,1436803719835,58.6689018660925
384,1436803720586,58.5815059746312
385,1436803721320,68.6938685939411
386,1436803722114,64.5108870243717
387,1436803722858,64.3117448559344
388,1436803723502,64.131683191212
389,1436803724181,54.3837815610961
390,1436803724855,54.8840260603344
391,1436803726960,52.1972690208783
392,1436803727586,56.9453025511791
393,1436803728309,51.557953122289
394,1436803729051,58.035684526539
395,1436803729795,55.7684776606198
396,1436803730534,52.9592621535761
397,1436803731271,67.5050286583152
398,1436803732003,51.8069225578647
399,1436803732723,64.7105819618776
400,1436803733442,51.8938386129914
401,1436803734087,52.9173686173449
402,1436803735134,52.644808112181
403,1436803735842,67.3666765137417
404,1436803736573,55.0084860125603
405,1436803737406,61.4302062095405
406,1436803738111,67.5206184952783
407,1436803738831,52.2735349120672
408,1436803739556,61.1045858306579
409,1436803740297,65.0798270184672
410,1436803741066,57.8338339856274
411,1436803741799,59.847844039645
412,1436803742547,61.6464804231673
413,1436803743252,72.3656065072683
414,1436803743977,61.4622246403895
415,1436803744653,70.2859200014065
416,1436803745393,66.5348111580278
417,1436803746187,58.5124389734343
418,1436803746911,60.3012165311957
419,1436803747635,56.9860674286765
420,1436803748362,53.7614839720938
421,1436803749104,65.3734829308714
422,1436803749852,65.1713401599923
423,1436803750555,55.0023679591146
424,1436803751291,69.2162054555275
425,1436803752028,65.5702021184405
426,1436803752755,68.6593863625598
427,1436803753477,63.6941577130412
428,1436803754173,62.298847768245
429,1436803754807,55.5554516706689
430,1436803755587,55.3814557165571
431,1436803756330,54.0320059187359
432,1436803757066,55.3172050191571
433,1436803757837,59.0245794945252
434,1436803758442,57.635918748792
435,1436803759113,58.4579358595601
436,1436803759886,58.2656557973192
437,1436803760576,62.6287199593485
438,1436803761281,63.475219208009
439,1436803762004,74.6831529000432
440,1436803762736,56.8122881434523
441,1436803763478,70.7778215766756
442,1436803764163,70.6053349429256
443,1436803764827,55.602459604131
444,1436803765619,65.0617688544362
445,1436803766367,56.0800224432925
446,1436803767125,64.4608280353817
447,1436803767853,53.276753384281
448,1436803768564,54.4298766423082
449,1436803769289,54.4542131400897
450,1436803769997,61.5193944789931
451,1436803770722,55.4274615559248
452,1436803771466,53.5185113462519
453,1436803772217,64.2639881575843
454,1436803772940,63.2908247488365
455,1436803773647,62.6321745306166
456,1436803774362,68.6423540871637
457,1436803775049,65.5626932211068
458,1436803775734,56.7673914018128
459,1436803776399,55.3886332747481
460,1436803777091,59.0863261704571
461,1436803777804,59.393123858502
462,1436803778492,59.0524570764154
463,1436803779214,69.3111303243742
464,1436803779905,54.9016405889099
465,1436803780660,60.4828673774263
466,1436803781366,57.1457232081099
467,1436803782104,55.1416304598524
468,1436803782841,55.881744944329
469,1436803783556,57.0157057483406
470,1436803784294,53.6724652558678
471,1436803785023,62.9392171851893
472,1436803785676,56.9561771121942
473,1436803786401,59.4392552099426
474,1436803787129,69.9465207553401
475,1436803787868,64.6840608742196
476,1436803788527,66.3300150082314
477,1436803789263,71.8287491279229
478,1436803789968,63.1429904844157
479,1436803790725,67.2176739353871
480,1436803791452,59.4719747865575
481,1436803792169,59.8601987132477
482,1436803792899,61.7100519752734
483,1436803793617,64.5667455783695
484,1436803794353,59.4350403707828
485,1436803795103,66.7574363759665
486,1436803795848,71.6361019657666
487,1436803796574,70.0785259096514
488,1436803797315,58.0691389980576
489,1436803798041,53.9981549560779
490,1436803798808,61.7936234398571
491,1436803799534,66.5646644882939
492,1436803800191,63.5026576257163
493,1436803800901,53.6331510407907
494,1436803801499,55.6584346522257
495,1436803802219,58.3432346100245
496,1436803802942,59.8990002203612
497,1436803803681,56.01018482383
498,1436803804408,57.1052039375213
499,1436803805134,56.3183840650875
500,1436803805765,57.2384239990665
501,1436803806493,63.5953738994415
502,1436803807265,70.4962825658854
503,1436803807995,72.4432446498047
504,1436803808723,62.8617106326283
505,1436803809442,55.4994354690076
506,1436803810188,56.2082400088439
507,1436803810914,54.4787921709206
508,1436803811635,58.2551221349527
509,1436803812391,58.5792488540075
510,1436803813130,53.048188787985
511,1436803813842,62.3739556326592
512,1436803814591,51.2137665643848
513,1436803815322,53.5509517899835
514,1436803816041,54.6862192545379
515,1436803816768,68.6830725270833
516,1436803817478,63.1450329835049
517,1436803818240,53.4195442361593
518,1436803818958,53.1103357386071
519,1436803819661,65.4554605011844
520,1436803820376,59.7666970582262
521,1436803821108,54.1431004467357
522,1436803821860,67.1763528345132
523,1436803822649,54.074738474205
524,1436803823359,70.7160808216857
525,1436803824085,52.9809305256454
526,1436803824806,50.3724446419462
527,1436803825560,55.2223549255872
528,1436803826311,53.6627465564067
529,1436803826996,65.9360843627714
530,1436803827747,57.3462859713328
531,1436803828427,55.9170838389109
532,1436803829068,56.8153858222481
533,1436803829767,67.7256735925423
534,1436803830520,60.2316830394383
535,1436803831233,56.3184801254722
536,1436803831953,57.7858369919223
537,1436803832711,65.0552184318786
538,1436803833431,61.511534064889
539,1436803834181,57.4121574013676
540,1436803834899,73.1917829378643
541,1436803835652,57.8772818488687
542,1436803836335,58.4803102684859
543,1436803837017,58.5500726925911
544,1436803837771,60.0273432717264
545,1436803838502,68.2939696547383
546,1436803839170,54.3847543529392
547,1436803839760,51.7918249849317
548,1436803840437,52.9879129872031
549,1436803841166,61.6495986189257
550,1436803841900,48.0187855920041
551,1436803842619,52.9716658746105
552,1436803843336,58.7857877950983
553,1436803844108,55.8116109448102
554,1436803844852,60.6945833680041
555,1436803845600,61.7899890400076
556,1436803846294,58.1388216688258
557,1436803846909,54.7658840790139
558,1436803847596,63.5407822309821
559,1436803848329,51.8147859415441
560,1436803849053,56.8584790702943
561,1436803849785,52.156715235681
562,1436803850476,51.9438187540995
563,1436803851152,51.1291771174129
564,1436803851896,52.0199809265958
565,1436803852647,50.6295328170492
566,1436803853362,61.9965732764736
567,1436803854094,52.328291916646
568,1436803854829,57.7396688998134
569,1436803855561,54.2059912552164
570,1436803856283,48.4706062441989
571,1436803856988,57.8218387927526
572,1436803857664,57.1656425641124
573,1436803858401,58.5346848457403
574,1436803859123,55.7954800909194
575,1436803859858,48.6722654829727
