id,attr_time,attr_db
1,1436803440728,73.4044904748772
2,1436803441458,71.7229232636008
3,1436803442194,71.1451922661142
4,1436803442918,70.7550283939878
5,1436803443648,70.1719142004885
6,1436803444388,59.4120777337566
7,1436803445138,60.8801967665859
8,1436803445877,68.3499066786992
9,1436803446605,59.7094171738439
10,1436803447321,56.2890314786323
11,1436803448049,62.9471641439346
12,1436803448772,71.9223141792975
13,1436803449474,55.0021059237749
14,1436803450106,55.9473723157655
15,1436803450832,51.9255686231044
16,1436803451535,52.3716805250822
17,1436803452201,55.7259848080625
18,1436803452896,49.5480140014432
19,1436803453641,49.1219247751095
20,1436803454377,55.2215091492209
21,1436803455119,53.9716400615728
22,1436803455861,54.1149738763537
23,1436803456467,73.4836420153823
24,1436803457172,58.514798059383
25,1436803457897,58.1644896080241
26,1436803458631,62.9106855172407
27,1436803459329,56.5448965219947
28,1436803460018,57.4600883142949
29,1436803460744,55.8092032125394
30,1436803461427,53.8072747278183
31,1436803462098,54.428756968671
32,1436803462825,55.7222738953738
33,1436803463579,56.2722111154901
34,1436803464321,49.9912520090482
35,1436803465053,70.3759752114547
36,1436803465737,53.2840038390602
37,1436803466395,55.4605222406822
38,1436803467133,52.2178374832949
39,1436803467875,52.3694968365616
40,1436803468614,55.9938475010757
41,1436803469356,51.7403037093088
42,1436803470125,51.6030172864463
43,1436803470820,51.3804068605511
44,1436803471412,51.9549217485341
45,1436803472084,49.5686514703055
46,1436803472848,54.198495030809
47,1436803473589,49.1035293576256
48,1436803474312,49.6770174598319
49,1436803475103,54.829936732103
50,1436803475822,53.1418842968879
51,1436803476558,50.7695375931908
52,1436803477301,57.1457505017383
53,1436803478017,56.7850061299232
54,1436803478764,51.1088287289595
55,1436803479501,52.5101833958115
56,1436803480291,52.0498794860003
57,1436803480987,51.6360528908293
58,1436803481739,53.4710137705342
59,1436803482443,49.8844447698457
60,1436803483109,55.567142509348
61,1436803483845,55.7017083904166
62,1436803484575,53.6628552900302
63,1436803485353,53.5762422364257
64,1436803486139,54.8852254196978
65,1436803486870,72.0212524251612
66,1436803487578,73.464329739372
67,1436803488336,61.0693830517437
68,1436803489055,54.8249880446708
69,1436803489868,70.2554096770749
70,1436803490588,57.749314015388
71,1436803491305,56.2185099701044
72,1436803491966,50.4230459117439
73,1436803492701,49.6364744750451
74,1436803493411,53.1299785109011
75,1436803494083,53.8768504979112
76,1436803494793,54.4976655420078
77,1436803495515,59.0037347713817
78,1436803496241,53.2104993600313
79,1436803496900,51.9198674648759
80,1436803497648,54.6213026176573
81,1436803498388,54.3082479524772
82,1436803499103,54.0450174462121
83,1436803499923,55.7089836454275
84,1436803500652,55.2135959930346
85,1436803501362,55.2968884912277
86,1436803502012,54.1687280497901
87,1436803502740,56.1233113350374
88,1436803503409,55.4312177141732
89,1436803504026,55.3125307399406
90,1436803504684,56.9196999708916
91,1436803505438,54.2193238235877
92,1436803506167,56.3624702280637
93,1436803506899,57.9703718457146
94,1436803507634,55.7315274846824
95,1436803508358,53.2656201983285
96,1436803509104,52.8396154530154
97,1436803509923,53.5298490342646
98,1436803510675,52.7458864449356
99,1436803511382,51.1075610376331
100,1436803512068,54.2655062186883
101,1436803512723,59.4474915139406
102,1436803513421,55.0397048425241
103,1436803514025,54.0554686824646
104,1436803514708,56.1560303205908
105,1436803515457,57.5671616039555
106,1436803516180,64.1570998257471
107,1436803516906,61.2113666567358
108,1436803517599,60.6475690269513
109,1436803518299,58.4928412109378
110,1436803518987,58.0273520843378
111,1436803520429,56.7928733671294
112,1436803521189,55.848069157144
113,1436803521918,54.9200957632673
114,1436803522607,55.5621146977063
115,1436803523284,55.7743505745564
116,1436803524045,56.1724409676142
117,1436803524773,55.444189328487
118,1436803525498,56.5947247064952
119,1436803526228,55.5305801155411
120,1436803526957,55.86219390762
121,1436803527668,65.2307135950362
122,1436803528409,68.9622913650089
123,1436803529093,54.3125465258846
124,1436803530572,55.5640315918111
125,1436803531235,54.3782576126051
126,1436803531995,54.5795049845436
127,1436803532704,55.6788983279453
128,1436803533404,56.5435156602717
129,1436803534155,55.3756196660596
130,1436803534932,55.2996596839584
131,1436803535655,54.72547811852
132,1436803536412,54.4584760702059
133,1436803537130,53.5756038825745
134,1436803537716,53.4983384734784
135,1436803538368,52.1914985911016
136,1436803539114,55.1381272689274
137,1436803539848,56.2670266166859
138,1436803540584,58.1642163536974
139,1436803541306,56.6353877339523
140,1436803542042,57.3078018067143
141,1436803542779,58.861242185607
142,1436803543507,56.7512355887796
143,1436803544118,56.0517899674339
144,1436803545533,55.7426338387725
145,1436803546200,60.8557587130369
146,1436803546931,54.3623879367499
147,1436803547645,54.0536439458538
148,1436803548362,51.8591827950137
149,1436803549088,67.9796760260567
150,1436803549830,61.1378144589912
151,1436803550579,65.671852217195
152,1436803551292,51.5360696669249
153,1436803552017,67.4349560468661
154,1436803552734,67.6210253611664
155,1436803554583,54.9439437214527
156,1436803555249,52.5338136174057
157,1436803555987,56.3193694723341
158,1436803556701,55.9292226018472
159,1436803557364,50.3505691339664
160,1436803558096,66.5411343663753
161,1436803558823,63.4667148904299
162,1436803559542,53.0249994879874
163,1436803560351,55.215652239956
164,1436803561080,72.2632764610544
165,1436803561794,68.8977779656849
166,1436803562526,70.5841273521156
167,1436803563243,51.1066616838432
168,1436803563966,53.0257717430564
169,1436803564765,56.5905714784168
170,1436803565429,56.0494994664215
171,1436803566161,54.4936944741267
172,1436803566926,56.2443781436446
173,1436803567649,56.3244919083837
174,1436803568390,55.4680386930043
175,1436803569113,54.6271292042126
176,1436803569899,53.388576555056
177,1436803570635,51.1853187492756
178,1436803571358,49.7420863589124
179,1436803572099,52.0367865520148
180,1436803572832,50.2843173878736
181,1436803573583,49.9393098614986
182,1436803574314,49.4433336380851
183,1436803575048,48.8583717527995
184,1436803575748,49.2790885623476
185,1436803576431,49.0652493150597
186,1436803577124,49.1120408640756
187,1436803577712,49.1979619196634
188,1436803578403,47.7880859852343
189,1436803579142,49.0936592888882
190,1436803579954,52.3889154158071
191,1436803580693,49.8135700759602
192,1436803581422,48.8488361402676
193,1436803582144,49.9706601348801
194,1436803582891,48.4231018466704
195,1436803583627,48.8322471201895
196,1436803584384,48.0631280209262
197,1436803585130,49.2180514220535
198,1436803585759,47.0667771897552
199,1436803586449,48.9084490192102
200,1436803587173,49.2111925047958
201,1436803587923,48.0704175568645
202,1436803588592,48.9867339620755
203,1436803589307,49.3559521553121
204,1436803590094,49.4864772080527
205,1436803590822,51.292683069358
206,1436803591553,50.96568818748
207,1436803592276,49.906297596183
208,1436803592947,52.6743693431038
209,1436803593627,52.8448181004312
210,1436803594353,70.1502182149792
211,1436803595096,59.3805127651648
212,1436803595819,71.3581348800427
213,1436803596558,52.1146683563439
214,1436803597274,49.754840326943
215,1436803597948,54.1626604562115
216,1436803598749,52.1472422627153
217,1436803599464,53.1970604643631
218,1436803600207,53.8042157518068
219,1436803601024,54.3541326742949
220,1436803601762,54.517307346664
221,1436803602499,53.8571720167738
222,1436803603244,53.7613873874392
223,1436803603966,52.4897213967748
224,1436803604696,54.0505955623844
225,1436803605454,54.3713425183282
226,1436803606185,54.4001498291604
227,1436803606908,54.5719356428921
228,1436803607556,56.1614432570802
229,1436803608227,54.0660512407984
230,1436803608816,54.6405007432999
231,1436803609487,57.9345324781071
232,1436803610225,56.8871977942419
233,1436803610954,56.4278977850489
234,1436803611671,59.6422361866881
235,1436803612404,54.9813497007523
236,1436803613132,74.9481563909656
237,1436803613862,54.191865876675
238,1436803614595,57.6844317410773
239,1436803615338,68.5603000684039
240,1436803616077,60.1076878229993
241,1436803616809,54.3416688614514
242,1436803617554,54.4246949310225
243,1436803618262,72.9800370446673
244,1436803618941,70.6272082665694
245,1436803619693,65.4939692671264
246,1436803620459,58.4665934196959
247,1436803621167,55.9173905163173
248,1436803621896,57.098662289804
249,1436803622611,70.068646502186
250,1436803623343,66.6430870840393
251,1436803624073,57.0723002552332
252,1436803624802,56.9052683935916
253,1436803625555,60.5114221001149
254,1436803626295,53.802158283573
255,1436803627021,69.5463167619874
256,1436803627756,72.4255939399239
257,1436803628440,53.4284330117201
258,1436803629083,54.1703322406918
259,1436803629862,57.739347195549
260,1436803630453,69.4936476207636
261,1436803631139,72.4888799466511
262,1436803631876,52.9957953517812
263,1436803632610,56.7855503983881
264,1436803633353,50.400308604166
265,1436803634082,74.2508350150753
266,1436803634860,71.7801338561853
267,1436803635596,71.8198807590829
268,1436803636344,54.8499697664995
269,1436803637068,53.6446586194136
270,1436803637856,55.0179748964953
271,1436803638530,54.6298233467588
272,1436803639225,59.8689431620485
273,1436803639912,52.6423930367286
274,1436803640560,73.2743028841183
275,1436803641197,52.7748329779863
276,1436803641853,50.180113679524
277,1436803642612,74.2210909637373
278,1436803643345,76.0125214842492
279,1436803644061,60.2782214305314
280,1436803644803,66.2310401806509
281,1436803645534,50.9456014302097
282,1436803646268,57.951341563353
283,1436803647006,56.7970134087799
284,1436803647724,50.1219521081135
285,1436803648463,63.3548069045074
286,1436803649161,58.8887550434615
287,1436803649841,74.7563425549669
288,1436803650567,74.5428177842615
289,1436803651302,74.8364141109508
290,1436803652014,56.5621799499856
291,1436803652730,71.016439415434
292,1436803653475,65.6356577371386
293,1436803654205,52.9472582138585
294,1436803654972,51.7422126037478
295,1436803655714,52.1912820494413
296,1436803656453,65.1447856198943
297,1436803657187,70.171481431324
298,1436803657926,64.2444910787866
299,1436803658656,70.797894045077
300,1436803659415,52.5419857780329
301,1436803660131,53.9680096826946
302,1436803660865,73.5444305063184
303,1436803661599,76.3054133556511
304,1436803662272,55.4661059574529
305,1436803662996,55.911205782578
306,1436803663712,54.9902298735526
307,1436803664446,54.7620208270718
308,1436803665259,54.6536351196341
309,1436803665991,60.3217582908502
310,1436803666725,59.3656603363764
311,1436803667455,74.0144785320004
312,1436803668215,58.7520291443626
313,1436803668945,65.3952252113686
314,1436803669727,56.9204579728812
315,1436803670428,53.2858801882781
316,1436803671098,70.5517208374074
317,1436803671835,61.9535120939545
318,1436803672633,61.9012591555658
319,1436803673312,55.3603876755573
320,1436803674055,58.415557487125
321,1436803674795,53.5065665935349
322,1436803675515,54.3727894572071
323,1436803676253,56.2287053673975
324,1436803676994,49.7059782686782
325,1436803677721,57.129998416932
326,1436803678443,58.0419999898504
327,1436803679178,49.0322356434529
328,1436803679907,49.6215716705567
329,1436803680646,48.5013990405761
330,1436803681361,59.3178094072322
331,1436803682022,49.3695287006364
332,1436803682764,48.8999924875218
333,1436803683491,49.0372517474075
334,1436803684169,51.5375613368566
335,1436803684910,54.3194042237826
336,1436803685642,49.0911276154161
337,1436803686374,50.8104243606944
338,1436803687104,70.2012404729042
339,1436803687837,52.8557393230703
340,1436803688564,58.7903949213041
341,1436803689287,50.090334482641
342,1436803690014,65.7199246699389
343,1436803690727,48.4662504777605
344,1436803691446,48.8499713124988
345,1436803692115,48.7163818521227
346,1436803692806,48.1226781913085
347,1436803693485,56.8021123432409
348,1436803694143,53.8702337493297
349,1436803694900,60.9445386003756
350,1436803695642,61.1271440301565
351,1436803696369,49.3775626031297
352,1436803697102,54.006166451158
353,1436803697845,47.576169888296
354,1436803698567,68.7184224099943
355,1436803699269,66.7820207884408
356,1436803700029,62.718950543392
357,1436803700756,51.0284830436516
358,1436803701527,61.7017818798112
359,1436803702272,55.7348704797091
360,1436803702940,48.161225962726
361,1436803703684,63.430109304042
362,1436803704404,63.9316583649882
363,1436803705112,51.86028093263
364,1436803705825,51.7576545270529
365,1436803706556,55.9291400699437
366,1436803707290,67.0219636932215
367,1436803708064,62.4578188451451
368,1436803708805,59.2534291474516
369,1436803709538,60.6317687003864
370,1436803710258,65.1160227970252
371,1436803711008,51.9891334734669
372,1436803711738,52.235463251371
373,1436803712472,59.5803429453289
374,1436803713124,48.7034930674337
375,1436803713878,61.2216739466958
376,1436803714497,48.2393064332094
377,1436803715198,55.2494335389853
378,1436803715910,63.9019594623075
379,1436803716649,54.074967465663
380,1436803717389,59.1992756386236
381,1436803718121,60.9456428388956
382,1436803718825,57.3587481870459
383,1436803719561,57.7234697323319
384,1436803720309,55.4648144347037
385,1436803721048,60.9798811581859
386,1436803721777,56.9396538082807
387,1436803722493,65.1539038438038
388,1436803723137,56.5625739793908
389,1436803724480,52.5744256825618
390,1436803725138,58.3135373005451
391,1436803725821,58.7899406795566
392,1436803726544,47.1446512746791
393,1436803727285,49.5968152505911
394,1436803727993,50.1783178355203
395,1436803728725,52.4912649263868
396,1436803729456,51.1750479656669
397,1436803730238,73.5691403666435
398,1436803730976,67.437918639963
399,1436803731718,50.993122048435
400,1436803732454,52.3115764482372
401,1436803733231,50.7260806837175
402,1436803733949,61.5542003323824
403,1436803734684,51.2336210700303
404,1436803735446,50.5425214620019
405,1436803736153,61.1298968304932
406,1436803736836,66.5506464074673
407,1436803738739,56.4349379187837
408,1436803739454,68.4583568889528
409,1436803740236,49.1882217157856
410,1436803740967,58.4260078357176
411,1436803741693,54.5506926075035
412,1436803742425,52.6744325977716
413,1436803743171,59.2952761582671
414,1436803743898,64.608869863008
415,1436803744659,56.3659175839207
416,1436803745331,69.7526231227326
417,1436803746055,60.6232088115596
418,1436803746749,53.2386359459649
419,1436803747346,54.0974012662408
420,1436803748023,60.1913671211538
421,1436803748759,54.9620988612116
422,1436803749519,59.2644251680851
423,1436803750266,54.2080848652538
424,1436803751006,52.9558607100967
425,1436803751742,53.3498066376585
426,1436803752478,48.9948713707614
427,1436803753170,63.1941844732858
428,1436803753866,52.9642761431865
429,1436803754609,55.4127332647873
430,1436803755261,65.8515857417211
431,1436803755978,52.1179980731051
432,1436803756727,51.8617315063705
433,1436803757441,52.5856116389431
434,1436803758082,54.12046282485
435,1436803758823,55.4462449430222
436,1436803759463,55.8566576797452
437,1436803760119,58.6987421357205
438,1436803761751,60.39715318638
439,1436803762502,60.6188426053397
440,1436803763184,58.318892055655
441,1436803763929,59.9247903377629
442,1436803764651,60.6655746717276
443,1436803765372,59.2909212954885
444,1436803765997,57.352387970776
445,1436803766622,48.8901611766643
446,1436803767282,62.1831762393263
447,1436803767929,59.2834679267483
448,1436803768625,58.6506820238373
449,1436803769417,50.0990427721737
450,1436803770139,57.4613634497671
451,1436803770865,58.2314229815518
452,1436803771593,62.3766529703276
453,1436803772337,54.3762218225494
454,1436803773066,52.6237733393531
455,1436803774977,57.3402867210522
456,1436803775656,62.4989156641765
457,1436803776401,57.8289153823646
458,1436803777138,54.684380632725
459,1436803777878,55.9338509084968
460,1436803778613,57.8564535686962
461,1436803779289,54.9060698951271
462,1436803780087,57.3443228175124
463,1436803780815,58.249737762681
464,1436803781514,51.6286537345792
465,1436803782208,62.2126738766093
466,1436803782937,54.2227689108203
467,1436803783657,69.4602066804909
468,1436803784391,54.7145883481507
469,1436803785204,72.8199111766448
470,1436803785924,54.2415696407065
471,1436803786642,58.6390693770277
472,1436803787324,55.7408554451035
473,1436803788014,57.9164940426393
474,1436803788800,68.4328878418347
475,1436803789546,64.7778584570938
476,1436803790283,68.6977848731092
477,1436803791019,66.6275114245687
478,1436803791792,62.625896915426
479,1436803792526,60.5228050882323
480,1436803793259,69.8113812868357
481,1436803793986,68.9573883884759
482,1436803794739,63.5810343326757
483,1436803795455,64.2965275152801
484,1436803796215,73.7676584936811
485,1436803796904,70.3254507440482
486,1436803797554,65.3282621438682
487,1436803798291,58.7063453433707
488,1436803798973,54.7039697233434
489,1436803799587,55.2057903964162
490,1436803800297,56.545218089205
491,1436803801057,56.8404914322913
492,1436803801787,55.02745867755
493,1436803802526,54.9388209436488
494,1436803803263,56.4552951967719
495,1436803803991,59.1145483721976
496,1436803804751,58.3820309394379
497,1436803805475,55.6140885412764
498,1436803806218,62.3420482631091
499,1436803806961,56.4477921255262
500,1436803807694,55.9092673024808
501,1436803808419,50.3436799169461
502,1436803809109,58.5045123369383
503,1436803809832,59.2812322338683
504,1436803810571,56.1969134987821
505,1436803811292,59.5030999468342
506,1436803811956,51.8995497909275
507,1436803812687,58.5617215782554
508,1436803813398,51.6352759719068
509,1436803814139,58.3326194759431
510,1436803814868,52.2001658929394
511,1436803815613,54.9734567932532
512,1436803816358,54.4098231641677
513,1436803817089,51.9100381974329
514,1436803817807,53.8480241850066
515,1436803818509,72.6653912908648
516,1436803819134,51.2474756312344
517,1436803819856,62.6219032159416
518,1436803820585,51.503559921285
519,1436803821249,54.9443522630411
520,1436803821982,50.6654853603742
521,1436803822807,57.4031125975564
522,1436803823537,58.7790714903629
523,1436803824292,77.6467442119227
524,1436803825022,51.5613953315629
525,1436803825824,49.6661569468704
526,1436803826572,49.8465803754343
527,1436803827303,56.2074388202623
528,1436803828032,52.2730966410371
529,1436803828772,61.8456990171819
530,1436803829493,59.309082358909
531,1436803830127,57.0933307561231
532,1436803830814,49.8496182548635
533,1436803831539,55.880645123492
534,1436803832268,51.9640567427658
535,1436803832986,54.7339996738572
536,1436803833711,71.4686379349018
537,1436803834413,68.0893186584501
538,1436803835058,71.0970131250973
539,1436803835748,59.6964251298722
540,1436803836494,66.5007723779846
541,1436803837216,74.8001441767426
542,1436803837941,54.8382109860092
543,1436803838666,58.5523667381533
544,1436803839336,57.0861909357491
545,1436803839997,58.3263709233423
546,1436803840719,55.1144916809358
547,1436803841493,68.6456613483387
548,1436803842217,53.1998878760068
549,1436803842948,72.7796830361491
550,1436803843696,73.6939645737224
551,1436803844441,70.4487808388268
552,1436803845177,54.9584537769064
553,1436803845898,50.9405825053825
554,1436803846623,55.3840191599445
555,1436803847362,56.981001929646
556,1436803848104,53.6323420763635
557,1436803848837,50.7591247831425
558,1436803849581,57.7165111642086
559,1436803850289,49.6198997316685
560,1436803850930,50.3980345341216
561,1436803851708,49.5066601885608
562,1436803852405,50.442913992239
563,1436803853118,48.6509280730964
564,1436803853883,49.4655819623542
565,1436803854618,55.5070472607743
566,1436803855359,48.578394055837
567,1436803856101,51.9228825190438
568,1436803856810,56.2725235637676
569,1436803857573,61.8382937438337
570,1436803858293,67.4517508420146
571,1436803859015,53.5016202731647
572,1436803859714,60.5488051490247
573,1436803860390,61.4064079223038
574,1436803860983,69.7098259808474
575,1436803861670,49.139467350144
