id,attr_time,attr_x,attr_y,attr_z
1,1436608595916,33.9508,26.3016,-12.1002
2,1436608595937,33.9508,26.3016,-12.1002
3,1436608595956,34.1263,27.8839,-11.2595
4,1436608595978,34.1263,28.5873,-11.2595
5,1436608595996,34.1263,28.5873,-11.2595
6,1436608596015,32.55,26.6525,-12.7731
7,1436608596035,33.4259,26.1261,-12.2681
8,1436608596054,33.4259,26.1261,-12.2681
9,1436608596075,33.6014,27.356,-12.7731
10,1436608596095,33.075,27.1805,-12.941
11,1436608596115,33.075,27.1805,-12.941
12,1436608596135,34.3018,26.3016,-12.1002
13,1436608596152,34.3018,27.005,-13.7817
14,1436608596175,34.3018,27.005,-13.7817
15,1436608596192,33.4259,27.5314,-12.6053
16,1436608596217,33.9508,26.6525,-12.1002
17,1436608596233,33.9508,26.6525,-12.1002
18,1436608596254,33.7769,27.5314,-12.6053
19,1436608596274,33.2504,27.7084,-11.7645
20,1436608596293,33.2504,27.7084,-11.7645
21,1436608596315,34.3018,28.4103,-12.1002
22,1436608596333,35.1776,25.7736,-11.9324
23,1436608596353,35.1776,25.7736,-11.9324
24,1436608596372,34.1263,27.1805,-12.941
25,1436608596392,34.1263,26.477,-12.941
26,1436608596412,34.1263,26.477,-12.941
27,1436608596432,33.4259,26.8295,-12.6053
28,1436608596452,33.9508,27.005,-12.4359
29,1436608596471,33.9508,27.005,-12.4359
30,1436608596491,33.4259,27.1805,-12.6053
31,1436608596511,35.5286,25.7736,-11.2595
32,1436608596531,35.5286,25.7736,-11.2595
33,1436608596551,34.3018,26.3016,-12.1002
34,1436608596570,33.6014,26.3016,-10.7544
35,1436608596591,33.6014,26.3016,-10.7544
36,1436608596611,34.3018,28.4103,-12.1002
37,1436608596630,33.7769,26.477,-13.6139
38,1436608596650,33.7769,26.477,-13.6139
39,1436608596670,34.6527,28.0594,-11.7645
40,1436608596690,34.1263,27.5314,-10.2509
41,1436608596712,34.1263,27.5314,-10.2509
42,1436608596729,34.1263,27.8839,-9.24072
43,1436608596749,33.9508,26.6525,-12.4359
44,1436608596769,33.9508,26.6525,-12.4359
45,1436608596787,33.6014,25.9506,-11.7645
46,1436608596811,34.3018,27.005,-12.7731
47,1436608596827,34.3018,27.005,-12.7731
48,1436608596848,34.4772,27.1805,-10.5865
49,1436608596868,34.1263,27.1805,-12.6053
50,1436608596888,34.1263,27.1805,-12.6053
51,1436608596907,33.4259,27.8839,-11.9324
52,1436608596926,32.1991,27.005,-12.4359
53,1436608596947,32.1991,27.005,-12.4359
54,1436608596967,34.6527,29.1138,-11.0916
55,1436608596987,33.9508,27.7084,-11.7645
56,1436608597009,33.9508,27.7084,-11.7645
57,1436608597026,33.6014,28.0594,-10.4187
58,1436608597046,34.8267,27.8839,-10.9222
59,1436608597067,34.8267,27.8839,-10.9222
60,1436608597086,33.6014,28.0594,-10.7544
61,1436608597104,33.4259,26.8295,-12.2681
62,1436608597126,33.4259,26.8295,-12.2681
63,1436608597144,33.9508,27.7084,-12.4359
64,1436608597166,34.6527,26.6525,-11.0916
65,1436608597184,34.6527,26.6525,-11.0916
66,1436608597205,35.3531,28.0594,-11.4273
67,1436608597225,33.4259,27.5314,-10.9222
68,1436608597243,33.4259,27.5314,-10.9222
69,1436608597265,32.55,27.005,-11.4273
70,1436608597283,33.075,25.7736,-11.5952
71,1436608597307,33.075,25.7736,-11.5952
72,1436608597324,34.3018,28.7628,-12.7731
73,1436608597344,33.6014,27.7084,-11.7645
74,1436608597364,33.6014,27.7084,-11.7645
75,1436608597383,33.4259,27.8839,-11.5952
76,1436608597406,33.7769,27.8839,-13.2767
77,1436608597423,33.7769,27.8839,-13.2767
78,1436608597443,33.9508,28.0594,-12.4359
79,1436608597462,33.9508,27.005,-13.7817
80,1436608597483,33.9508,27.005,-13.7817
81,1436608597503,33.4259,27.1805,-11.9324
82,1436608597522,33.9508,27.356,-11.4273
83,1436608597542,33.9508,27.356,-11.4273
84,1436608597560,34.6527,28.4103,-11.7645
85,1436608597582,34.4772,26.477,-12.2681
86,1436608597600,34.4772,26.477,-12.2681
87,1436608597621,32.7255,28.2349,-10.9222
88,1436608597644,34.8267,26.1261,-12.941
89,1436608597661,34.8267,26.1261,-12.941
90,1436608597681,33.6014,27.356,-11.4273
91,1436608597701,33.9508,25.9506,-12.4359
92,1436608597720,33.9508,25.9506,-12.4359
93,1436608597742,33.6014,27.356,-11.0916
94,1436608597760,34.8267,26.1261,-12.941
95,1436608597780,34.8267,26.1261,-12.941
96,1436608597800,34.8267,27.5314,-11.9324
97,1436608597819,34.3018,26.6525,-12.1002
98,1436608597840,34.3018,26.6525,-12.1002
99,1436608597859,33.6014,28.0594,-10.7544
100,1436608597878,33.7769,28.2349,-10.9222
101,1436608597898,33.7769,28.2349,-10.9222
102,1436608597918,34.1263,28.5873,-12.941
103,1436608597939,35.0021,27.005,-11.4273
104,1436608597958,35.0021,27.005,-11.4273
105,1436608597978,34.4772,27.5314,-12.6053
106,1436608597998,33.9508,26.6525,-13.1088
107,1436608598018,33.9508,26.6525,-13.1088
108,1436608598037,34.8267,27.8839,-12.6053
109,1436608598057,34.8267,27.1805,-12.6053
110,1436608598077,34.8267,27.1805,-12.6053
111,1436608598097,33.9508,27.7084,-10.7544
112,1436608598117,34.3018,26.3016,-11.7645
113,1436608598139,34.3018,26.3016,-11.7645
114,1436608598157,35.704,28.7628,-13.446
115,1436608598174,34.8267,26.1261,-11.9324
116,1436608598195,34.8267,26.1261,-11.9324
117,1436608598216,34.6527,27.7084,-11.7645
118,1436608598234,33.7769,27.8839,-11.5952
119,1436608598256,33.7769,27.8839,-11.5952
120,1436608598275,33.075,27.8839,-11.2595
121,1436608598296,33.6014,27.7084,-12.7731
122,1436608598315,33.6014,27.7084,-12.7731
123,1436608598336,33.6014,28.0594,-12.1002
124,1436608598355,34.8267,25.4227,-12.6053
125,1436608598374,34.8267,25.4227,-12.6053
126,1436608598395,33.075,28.2349,-11.2595
127,1436608598414,32.8995,26.3016,-11.0916
128,1436608598436,32.8995,26.3016,-11.0916
129,1436608598454,34.1263,29.2892,-11.9324
130,1436608598474,34.1263,26.1261,-12.6053
131,1436608598494,34.1263,26.1261,-12.6053
132,1436608598513,34.3018,27.356,-10.7544
133,1436608598536,33.4259,24.7192,-12.941
134,1436608598552,33.4259,24.7192,-12.941
135,1436608598572,34.1263,27.8839,-11.9324
136,1436608598593,34.8267,26.8295,-12.941
137,1436608598613,34.8267,26.8295,-12.941
138,1436608598633,32.1991,28.0594,-9.74579
139,1436608598650,35.3531,26.6525,-11.0916
140,1436608598672,35.3531,26.6525,-11.0916
141,1436608598691,34.4772,27.1805,-12.6053
142,1436608598712,33.7769,25.4227,-13.2767
143,1436608598732,33.7769,25.4227,-13.2767
144,1436608598751,32.55,28.0594,-11.0916
145,1436608598768,34.4772,27.1805,-10.9222
146,1436608598787,34.4772,27.1805,-10.9222
147,1436608598807,35.3531,28.7628,-12.1002
148,1436608598827,33.6014,27.005,-12.4359
149,1436608598846,33.6014,27.005,-12.4359
150,1436608598871,33.075,26.8295,-12.2681
151,1436608598889,34.3018,28.0594,-13.1088
152,1436608598910,34.3018,28.0594,-13.1088
153,1436608598930,34.8267,27.1805,-12.2681
154,1436608598949,34.4772,27.5314,-10.5865
155,1436608598967,34.4772,27.5314,-10.5865
156,1436608598989,33.9508,27.356,-11.4273
157,1436608599007,34.1263,25.4227,-12.941
158,1436608599028,34.1263,25.4227,-12.941
159,1436608599048,33.6014,29.1138,-12.1002
160,1436608599069,33.6014,28.0594,-11.4273
161,1436608599088,33.6014,28.0594,-11.4273
162,1436608599108,34.3018,29.1138,-12.1002
163,1436608599128,34.4772,26.477,-12.2681
164,1436608599147,34.4772,26.477,-12.2681
165,1436608599168,34.8267,28.9383,-12.6053
166,1436608599187,33.6014,26.6525,-11.7645
167,1436608599207,33.6014,26.6525,-11.7645
168,1436608599226,33.9508,28.0594,-11.7645
169,1436608599247,34.6527,27.005,-12.1002
170,1436608599269,34.6527,27.005,-12.1002
171,1436608599285,35.3531,28.4103,-11.4273
172,1436608599306,33.4259,27.5314,-11.9324
173,1436608599325,33.4259,27.5314,-11.9324
174,1436608599346,34.1263,27.8839,-10.5865
175,1436608599368,33.9508,27.005,-13.446
176,1436608599385,33.9508,27.005,-13.446
177,1436608599405,35.5286,27.1805,-11.9324
178,1436608599425,33.6014,26.6525,-12.7731
179,1436608599445,33.6014,26.6525,-12.7731
180,1436608599467,34.3018,27.7084,-11.4273
181,1436608599485,33.9508,27.005,-12.4359
182,1436608599504,33.9508,27.005,-12.4359
183,1436608599524,34.3018,27.7084,-12.1002
184,1436608599544,33.2504,27.7084,-13.1088
185,1436608599563,33.2504,27.7084,-13.1088
186,1436608599584,34.3018,27.7084,-12.4359
187,1436608599602,34.8267,26.8295,-12.941
188,1436608599624,34.8267,26.8295,-12.941
189,1436608599642,34.4772,27.8839,-12.2681
190,1436608599665,32.55,26.6525,-11.0916
191,1436608599683,32.55,26.6525,-11.0916
192,1436608599703,34.4772,27.5314,-12.2681
193,1436608599723,33.4259,26.477,-12.2681
194,1436608599741,33.4259,26.477,-12.2681
195,1436608599762,33.2504,28.7628,-11.4273
196,1436608599781,33.7769,26.477,-11.5952
197,1436608599802,33.7769,26.477,-11.5952
198,1436608599822,33.075,26.8295,-12.2681
199,1436608599841,34.8267,28.5873,-13.2767
200,1436608599863,34.8267,28.5873,-13.2767
201,1436608599881,34.3018,27.356,-13.1088
202,1436608599900,34.3018,26.6525,-12.4359
203,1436608599919,34.3018,26.6525,-12.4359
204,1436608599940,34.1263,28.5873,-12.6053
205,1436608599960,33.9508,27.005,-12.4359
206,1436608599980,33.9508,27.005,-12.4359
207,1436608600002,33.075,27.5314,-11.5952
208,1436608600020,33.9508,27.005,-11.7645
209,1436608600039,33.9508,27.005,-11.7645
210,1436608600058,35.3531,27.7084,-14.7903
211,1436608600079,34.8267,25.7736,-11.2595
212,1436608600101,34.8267,25.7736,-11.2595
213,1436608600119,33.7769,28.2349,-11.2595
214,1436608600139,35.0021,27.356,-12.1002
215,1436608600159,35.0021,27.356,-12.1002
216,1436608600178,34.3018,27.7084,-11.4273
217,1436608600198,35.0021,27.356,-11.7645
218,1436608600217,35.0021,27.356,-11.7645
219,1436608600237,32.8995,27.005,-11.4273
220,1436608600258,34.4772,26.477,-11.5952
221,1436608600276,34.4772,26.477,-11.5952
222,1436608600298,33.4259,27.8839,-12.2681
223,1436608600317,34.3018,27.005,-12.4359
224,1436608600337,34.3018,27.005,-12.4359
225,1436608600357,34.3018,27.356,-11.7645
226,1436608600374,35.5286,26.1261,-11.5952
227,1436608600397,35.5286,26.1261,-11.5952
228,1436608600415,34.1263,27.1805,-10.9222
229,1436608600436,35.1776,26.8295,-11.5952
230,1436608600456,35.1776,26.8295,-11.5952
231,1436608600476,34.6527,27.356,-11.0916
232,1436608600496,34.4772,27.1805,-11.5952
233,1436608600515,34.4772,27.1805,-11.5952
234,1436608600535,34.1263,27.1805,-13.9496
235,1436608600554,35.704,27.356,-11.7645
236,1436608600575,35.704,27.356,-11.7645
237,1436608600597,33.4259,27.1805,-10.2509
238,1436608600614,34.8267,27.1805,-12.2681
239,1436608600634,34.8267,27.1805,-12.2681
240,1436608600654,33.7769,28.5873,-8.90503
241,1436608600674,33.6014,27.7084,-9.4101
242,1436608600693,33.6014,27.7084,-9.4101
243,1436608600713,35.1776,29.2892,-9.91363
244,1436608600732,33.6014,28.4103,-9.74579
245,1436608600753,33.6014,28.4103,-9.74579
246,1436608600773,35.5286,27.5314,-8.23212
247,1436608600795,33.9508,26.3016,-9.4101
248,1436608600813,33.9508,26.3016,-9.4101
249,1436608600832,34.8267,28.9383,-9.57794
250,1436608600853,34.3018,27.356,-9.07288
251,1436608600872,34.3018,27.356,-9.07288
252,1436608600891,33.6014,27.356,-8.06427
253,1436608600912,34.1263,28.2349,-8.56934
254,1436608600932,34.1263,28.2349,-8.56934
255,1436608600952,34.8267,27.8839,-9.91363
256,1436608600971,35.1776,26.477,-8.90503
257,1436608600991,35.1776,26.477,-8.90503
258,1436608601009,34.3018,28.7628,-9.07288
259,1436608601030,35.0021,26.6525,-9.74579
260,1436608601050,35.0021,26.6525,-9.74579
261,1436608601070,33.7769,27.5314,-7.5592
262,1436608601090,33.6014,26.3016,-9.74579
263,1436608601110,33.6014,26.3016,-9.74579
264,1436608601130,33.4259,28.2349,-9.57794
265,1436608601149,35.5286,25.7736,-8.90503
266,1436608601169,35.5286,25.7736,-8.90503
267,1436608601188,33.4259,28.5873,-9.91363
268,1436608601209,34.1263,27.8839,-9.91363
269,1436608601228,34.1263,27.8839,-9.91363
270,1436608601249,32.7255,27.5314,-10.2509
271,1436608601268,35.3531,26.6525,-11.0916
272,1436608601289,35.3531,26.6525,-11.0916
273,1436608601308,34.6527,27.7084,-11.0916
274,1436608601326,34.8267,26.8295,-10.5865
275,1436608601348,34.8267,26.8295,-10.5865
276,1436608601367,35.5286,28.5873,-10.9222
277,1436608601388,34.6527,28.0594,-12.1002
278,1436608601407,34.6527,28.0594,-12.1002
279,1436608601427,33.9508,27.356,-11.0916
280,1436608601447,35.0021,25.5981,-12.4359
281,1436608601465,35.0021,25.5981,-12.4359
282,1436608601487,32.8995,27.356,-13.7817
283,1436608601506,34.1263,25.0717,-13.2767
284,1436608601529,34.1263,25.0717,-13.2767
285,1436608601545,35.704,26.6525,-14.7903
286,1436608601566,34.6527,26.3016,-15.4633
287,1436608601586,34.6527,26.3016,-15.4633
288,1436608601606,34.8267,27.5314,-13.6139
289,1436608601628,34.8267,25.4227,-15.6311
290,1436608601645,34.8267,25.4227,-15.6311
291,1436608601665,33.9508,25.9506,-16.8091
292,1436608601684,33.7769,25.4227,-15.9683
293,1436608601705,33.7769,25.4227,-15.9683
294,1436608601727,34.6527,26.3016,-16.1362
295,1436608601742,34.8267,24.0158,-16.304
296,1436608601764,34.8267,24.0158,-16.304
297,1436608601782,34.4772,26.1261,-16.6412
298,1436608601804,33.9508,25.2472,-14.7903
299,1436608601823,33.9508,25.2472,-14.7903
300,1436608601843,33.4259,26.1261,-15.6311
301,1436608601863,32.8995,25.2472,-17.1448
302,1436608601883,32.8995,25.2472,-17.1448
303,1436608601903,33.6014,27.356,-16.1362
304,1436608601923,34.3018,24.5438,-16.1362
305,1436608601943,34.3018,24.5438,-16.1362
306,1436608601962,32.55,26.6525,-16.8091
307,1436608601982,34.1263,25.0717,-15.6311
308,1436608602002,34.1263,25.0717,-15.6311
309,1436608602022,33.7769,27.8839,-15.2954
310,1436608602041,33.9508,27.7084,-17.1448
311,1436608602062,33.9508,27.7084,-17.1448
312,1436608602082,34.3018,28.0594,-16.1362
313,1436608602100,33.6014,26.3016,-15.4633
314,1436608602123,33.6014,26.3016,-15.4633
315,1436608602140,33.2504,28.0594,-15.1276
316,1436608602160,32.8995,27.356,-14.7903
317,1436608602181,32.8995,27.356,-14.7903
318,1436608602199,33.075,28.5873,-14.6225
319,1436608602220,32.0236,28.5873,-13.2767
320,1436608602239,32.0236,28.5873,-13.2767
321,1436608602260,32.7255,29.2892,-12.6053
322,1436608602279,32.0236,27.1805,-14.9582
323,1436608602299,32.0236,27.1805,-14.9582
324,1436608602322,33.4259,28.5873,-12.941
325,1436608602339,33.7769,28.2349,-13.6139
326,1436608602359,33.7769,28.2349,-13.6139
327,1436608602379,33.9508,29.4662,-13.7817
328,1436608602398,33.075,25.7736,-13.9496
329,1436608602417,33.075,25.7736,-13.9496
330,1436608602438,33.6014,28.0594,-12.7731
331,1436608602457,33.2504,27.7084,-15.1276
332,1436608602478,33.2504,27.7084,-15.1276
333,1436608602498,32.3746,27.8839,-14.2868
334,1436608602518,34.3018,27.005,-14.7903
335,1436608602537,34.3018,27.005,-14.7903
336,1436608602556,35.0021,26.6525,-13.446
337,1436608602577,34.1263,26.477,-14.2868
338,1436608602596,34.1263,26.477,-14.2868
339,1436608602617,33.9508,26.3016,-14.4547
340,1436608602636,34.4772,26.1261,-14.6225
341,1436608602659,34.4772,26.1261,-14.6225
342,1436608602676,33.7769,27.8839,-14.6225
343,1436608602696,33.7769,26.477,-14.9582
344,1436608602716,33.7769,26.477,-14.9582
345,1436608602735,34.4772,28.5873,-14.6225
346,1436608602758,34.6527,26.3016,-13.7817
347,1436608602774,34.6527,26.3016,-13.7817
348,1436608602795,34.3018,27.7084,-13.446
349,1436608602815,32.7255,26.1261,-13.9496
350,1436608602835,32.7255,26.1261,-13.9496
351,1436608602857,34.3018,27.356,-14.1174
352,1436608602872,33.9508,24.8947,-13.7817
353,1436608602894,33.9508,24.8947,-13.7817
354,1436608602913,35.0021,28.0594,-13.7817
355,1436608602934,35.878,26.1261,-14.6225
356,1436608602956,35.878,26.1261,-14.6225
357,1436608602973,34.4772,27.5314,-13.6139
358,1436608602993,35.1776,27.1805,-11.9324
359,1436608603013,35.1776,27.1805,-11.9324
360,1436608603032,34.4772,26.477,-12.6053
361,1436608603053,33.9508,27.005,-13.7817
362,1436608603072,33.9508,27.005,-13.7817
363,1436608603091,32.7255,27.5314,-12.6053
364,1436608603112,33.4259,26.1261,-13.6139
365,1436608603132,33.4259,26.1261,-13.6139
366,1436608603152,34.8267,26.8295,-11.9324
367,1436608603172,33.075,25.7736,-12.6053
368,1436608603189,33.075,25.7736,-12.6053
369,1436608603211,33.9508,26.6525,-13.446
370,1436608603230,34.4772,26.477,-12.941
371,1436608603253,34.4772,26.477,-12.941
372,1436608603271,35.0021,27.356,-13.1088
373,1436608603290,33.9508,25.9506,-13.1088
374,1436608603311,33.9508,25.9506,-13.1088
375,1436608603330,35.1776,26.8295,-12.6053
376,1436608603352,33.7769,27.1805,-13.9496
377,1436608603370,33.7769,27.1805,-13.9496
378,1436608603389,34.3018,27.005,-13.1088
379,1436608603410,33.6014,26.3016,-13.1088
380,1436608603429,33.6014,26.3016,-13.1088
381,1436608603452,34.1263,27.1805,-12.2681
382,1436608603469,33.4259,26.477,-14.2868
383,1436608603489,33.4259,26.477,-14.2868
384,1436608603507,34.8267,29.2892,-12.2681
385,1436608603528,33.7769,25.7736,-12.941
386,1436608603547,33.7769,25.7736,-12.941
387,1436608603568,32.7255,28.2349,-12.2681
388,1436608603588,34.3018,28.0594,-12.7731
389,1436608603608,34.3018,28.0594,-12.7731
390,1436608603627,35.3531,27.005,-12.7731
391,1436608603648,36.2289,26.8295,-11.9324
392,1436608603667,36.2289,26.8295,-11.9324
393,1436608603687,34.1263,28.9383,-11.5952
394,1436608603706,33.9508,27.7084,-8.73718
395,1436608603726,33.9508,27.7084,-8.73718
396,1436608603747,35.1776,29.2892,-9.24072
397,1436608603766,32.0236,27.8839,-9.24072
398,1436608603788,32.0236,27.8839,-9.24072
399,1436608603806,34.4772,29.9927,-8.90503
400,1436608603824,34.4772,28.9383,-8.56934
401,1436608603846,34.4772,28.9383,-8.56934
402,1436608603864,35.3531,29.8172,-6.04553
403,1436608603884,33.2504,27.005,-5.37415
404,1436608603905,33.2504,27.005,-5.37415
405,1436608603925,33.2504,28.7628,-6.04553
406,1436608603945,34.3018,28.0594,-7.72858
407,1436608603963,34.3018,28.0594,-7.72858
408,1436608603987,36.0535,28.7628,-8.39996
409,1436608604003,32.1991,27.7084,-6.38275
410,1436608604024,32.1991,27.7084,-6.38275
411,1436608604043,34.3018,27.7084,-7.05566
412,1436608604063,34.1263,27.8839,-7.22351
413,1436608604084,34.1263,27.8839,-7.22351
414,1436608604103,34.3018,29.1138,-7.05566
415,1436608604123,34.4772,27.1805,-7.22351
416,1436608604141,34.4772,27.1805,-7.22351
417,1436608604163,34.6527,28.7628,-6.04553
418,1436608604182,33.4259,27.1805,-8.23212
419,1436608604202,33.4259,27.1805,-8.23212
420,1436608604222,34.1263,28.2349,-6.2149
421,1436608604242,33.7769,27.5314,-6.88629
422,1436608604262,33.7769,27.5314,-6.88629
423,1436608604282,34.4772,28.5873,-5.20477
424,1436608604301,33.4259,27.8839,-6.5506
425,1436608604320,33.4259,27.8839,-6.5506
426,1436608604341,32.7255,30.3452,-5.20477
427,1436608604361,33.2504,29.1138,-5.37415
428,1436608604381,33.2504,29.1138,-5.37415
429,1436608604400,33.075,27.8839,-4.53339
430,1436608604420,33.075,28.5873,-5.87769
431,1436608604440,33.075,28.5873,-5.87769
432,1436608604459,32.7255,29.6417,-3.86047
433,1436608604482,33.075,29.6417,-4.86908
434,1436608604499,33.075,29.6417,-4.86908
435,1436608604519,34.3018,30.8716,-4.36401
436,1436608604539,33.6014,29.1138,-4.36401
437,1436608604559,33.6014,29.1138,-4.36401
438,1436608604581,34.3018,28.7628,-5.37415
439,1436608604596,33.075,28.2349,-4.53339
440,1436608604618,33.075,28.2349,-4.53339
441,1436608604637,33.9508,29.4662,-4.70123
442,1436608604658,33.7769,28.5873,-5.87769
443,1436608604680,33.7769,28.5873,-5.87769
444,1436608604698,34.1263,29.9927,-4.86908
445,1436608604717,33.7769,28.9383,-7.22351
446,1436608604738,33.7769,28.9383,-7.22351
447,1436608604757,33.2504,29.1138,-8.06427
448,1436608604779,33.9508,29.1138,-7.05566
449,1436608604797,33.9508,29.1138,-7.05566
450,1436608604817,32.0236,28.9383,-8.56934
451,1436608604837,32.1991,29.1138,-7.05566
452,1436608604856,32.1991,29.1138,-7.05566
453,1436608604876,33.2504,28.4103,-8.06427
454,1436608604896,35.0021,27.7084,-8.39996
455,1436608604914,35.0021,27.7084,-8.39996
456,1436608604936,33.4259,28.2349,-8.56934
457,1436608604954,34.3018,28.4103,-7.72858
458,1436608604975,34.3018,28.4103,-7.72858
459,1436608604995,34.1263,28.9383,-6.88629
460,1436608605017,34.6527,29.1138,-6.38275
461,1436608605034,34.6527,29.1138,-6.38275
462,1436608605055,34.1263,27.8839,-4.53339
463,1436608605075,32.8995,29.1138,-6.04553
464,1436608605094,32.8995,29.1138,-6.04553
465,1436608605116,32.7255,30.3452,-4.86908
466,1436608605134,35.0021,28.7628,-6.04553
467,1436608605154,35.0021,28.7628,-6.04553
468,1436608605174,33.075,29.9927,-4.53339
469,1436608605193,32.3746,28.2349,-5.20477
470,1436608605213,32.3746,28.2349,-5.20477
