id,attr_time,attr_x,attr_y,attr_z
1,1436608595923,17.881,-38.603,8.706
2,1436608595943,17.881,-38.603,8.706
3,1436608595962,17.881,-38.603,8.706
4,1436608595984,17.881,-38.603,8.706
5,1436608596003,17.881,-38.603,8.706
6,1436608596028,17.881,-38.603,8.706
7,1436608596043,17.881,-38.603,8.706
8,1436608596060,17.881,-38.603,8.706
9,1436608596081,17.881,-38.603,8.706
10,1436608596100,17.881,-38.603,8.706
11,1436608596123,17.881,-38.603,8.706
12,1436608596147,17.881,-38.603,8.706
13,1436608596162,17.881,-38.603,8.706
14,1436608596184,17.881,-38.603,8.398
15,1436608596201,17.881,-38.603,8.398
16,1436608596220,17.881,-38.603,8.398
17,1436608596240,17.881,-38.603,8.398
18,1436608596262,17.881,-38.603,8.398
19,1436608596287,17.881,-38.603,8.398
20,1436608596347,17.881,-38.603,8.398
21,1436608596348,17.881,-38.603,8.398
22,1436608596349,17.881,-38.603,8.398
23,1436608596371,17.881,-38.603,8.398
24,1436608596380,17.881,-38.603,8.398
25,1436608596401,17.881,-38.603,8.398
26,1436608596422,17.881,-38.603,8.398
27,1436608596440,17.881,-38.603,8.398
28,1436608596461,17.881,-38.603,8.398
29,1436608596481,17.881,-38.603,8.398
30,1436608596501,17.881,-38.603,8.398
31,1436608596520,17.881,-38.603,8.398
32,1436608596541,17.881,-38.603,8.398
33,1436608596561,17.881,-38.603,8.398
34,1436608596582,17.881,-38.603,8.398
35,1436608596603,17.881,-38.603,8.398
36,1436608596624,17.881,-38.603,8.398
37,1436608596643,17.881,-38.603,8.398
38,1436608596664,17.881,-38.603,8.398
39,1436608596685,17.881,-38.603,8.071
40,1436608596703,17.881,-38.603,8.071
41,1436608596724,17.881,-38.603,8.071
42,1436608596743,17.881,-38.603,8.071
43,1436608596761,17.881,-38.603,8.071
44,1436608596785,17.881,-38.603,8.071
45,1436608596803,17.881,-38.603,8.071
46,1436608596824,17.881,-38.603,8.071
47,1436608596842,17.881,-38.603,8.071
48,1436608596865,17.881,-38.603,8.071
49,1436608596885,17.881,-38.603,8.071
50,1436608596903,17.881,-38.603,8.071
51,1436608596924,17.881,-38.603,8.071
52,1436608596945,17.881,-38.603,8.071
53,1436608596964,17.881,-38.603,8.071
54,1436608596985,17.881,-38.603,8.071
55,1436608597004,17.881,-38.603,8.071
56,1436608597107,17.881,-38.603,8.071
57,1436608597108,17.881,-38.603,8.071
58,1436608597109,17.881,-38.603,8.071
59,1436608597110,17.881,-38.603,8.071
60,1436608597111,17.881,-38.603,8.071
61,1436608597123,17.881,-38.603,8.071
62,1436608597143,17.881,-38.603,8.071
63,1436608597163,17.881,-38.603,8.071
64,1436608597196,17.881,-38.603,8.071
65,1436608597202,17.881,-38.603,8.071
66,1436608597221,17.881,-38.603,8.071
67,1436608597241,17.881,-38.603,8.071
68,1436608597262,17.881,-38.603,8.071
69,1436608597292,17.881,-38.603,8.071
70,1436608597305,17.881,-38.603,8.071
71,1436608597325,17.881,-38.603,8.071
72,1436608597345,17.881,-38.603,8.071
73,1436608597365,17.881,-38.603,8.071
74,1436608597385,17.881,-38.603,8.071
75,1436608597405,17.881,-38.603,8.071
76,1436608597425,17.881,-38.603,8.377
77,1436608597444,17.881,-38.603,8.377
78,1436608597466,17.881,-38.603,8.377
79,1436608597482,17.881,-38.603,8.377
80,1436608597505,17.881,-38.603,8.377
81,1436608597527,17.881,-38.603,8.377
82,1436608597545,17.881,-38.603,8.377
83,1436608597565,17.881,-38.603,8.377
84,1436608597586,17.881,-38.603,8.377
85,1436608597604,17.881,-38.603,8.377
86,1436608597622,17.881,-38.603,8.377
87,1436608597645,17.881,-38.603,8.377
88,1436608597665,17.881,-38.603,8.377
89,1436608597687,17.881,-38.603,8.377
90,1436608597712,17.881,-38.603,8.377
91,1436608597722,17.881,-38.603,8.377
92,1436608597743,17.881,-38.603,8.377
93,1436608597767,17.881,-38.603,8.377
94,1436608597789,17.881,-38.603,8.377
95,1436608597802,17.881,-38.603,8.377
96,1436608597822,17.881,-38.603,8.377
97,1436608597844,17.881,-38.603,8.377
98,1436608597865,17.881,-38.603,8.377
99,1436608597886,17.881,-38.603,8.377
100,1436608597904,17.881,-38.603,8.377
101,1436608597922,17.881,-38.603,8.377
102,1436608597943,17.881,-38.603,8.377
103,1436608597963,17.881,-38.603,8.377
104,1436608597983,17.881,-38.603,8.377
105,1436608598066,17.881,-38.603,8.377
106,1436608598067,17.881,-38.603,8.377
107,1436608598068,17.881,-38.603,8.377
108,1436608598069,17.881,-38.603,8.377
109,1436608598092,17.881,-38.603,8.377
110,1436608598105,17.881,-38.603,8.377
111,1436608598125,17.881,-38.603,8.377
112,1436608598146,17.881,-38.603,8.377
113,1436608598165,17.881,-38.603,8.377
114,1436608598186,17.881,-38.603,8.377
115,1436608598202,17.881,-38.603,8.377
116,1436608598226,17.881,-38.603,8.377
117,1436608598246,17.881,-38.603,8.377
118,1436608598266,17.881,-38.603,8.377
119,1436608598286,17.881,-38.603,8.377
120,1436608598303,17.881,-38.603,8.377
121,1436608598326,17.881,-38.603,8.377
122,1436608598346,17.881,-38.603,8.377
123,1436608598366,17.881,-38.603,8.377
124,1436608598386,17.881,-38.603,8.377
125,1436608598406,17.881,-38.603,8.377
126,1436608598426,17.881,-38.603,8.377
127,1436608598443,17.881,-38.603,8.377
128,1436608598463,17.881,-38.603,8.377
129,1436608598512,17.881,-38.603,8.377
130,1436608598515,17.881,-38.603,8.377
131,1436608598531,17.881,-38.603,8.377
132,1436608598543,17.881,-38.603,8.377
133,1436608598564,17.881,-38.603,8.377
134,1436608598586,17.881,-38.603,8.377
135,1436608598603,17.881,-38.603,8.377
136,1436608598626,17.881,-38.603,8.377
137,1436608598643,17.881,-38.603,8.377
138,1436608598666,17.881,-38.603,8.377
139,1436608598687,17.881,-38.603,8.377
140,1436608598703,17.881,-38.603,8.377
141,1436608598723,17.881,-38.603,8.377
142,1436608598746,17.881,-38.603,8.377
143,1436608598766,17.881,-38.603,8.377
144,1436608598786,17.881,-38.603,8.377
145,1436608598806,17.881,-38.603,8.377
146,1436608598826,17.881,-38.603,8.377
147,1436608598846,17.881,-38.603,8.377
148,1436608598866,17.881,-38.603,8.377
149,1436608598886,17.881,-38.603,8.377
150,1436608598906,17.881,-38.603,8.377
151,1436608598923,17.881,-38.603,8.377
152,1436608598946,17.881,-38.603,8.377
153,1436608598967,17.881,-38.603,8.377
154,1436608598988,17.881,-38.603,8.377
155,1436608599008,17.881,-38.603,8.377
156,1436608599029,17.881,-38.603,8.377
157,1436608599044,17.881,-38.603,8.377
158,1436608599066,17.881,-38.603,8.377
159,1436608599086,17.881,-38.603,8.377
160,1436608599106,17.881,-38.603,8.377
161,1436608599128,17.881,-38.603,8.377
162,1436608599147,17.881,-38.603,8.377
163,1436608599166,17.881,-38.603,8.377
164,1436608599187,17.881,-38.603,8.377
165,1436608599240,17.881,-38.603,8.377
166,1436608599241,17.881,-38.603,8.377
167,1436608599251,17.881,-38.603,8.377
168,1436608599266,17.881,-38.603,8.377
169,1436608599285,17.881,-38.603,8.377
170,1436608599308,17.881,-38.603,8.377
171,1436608599326,17.881,-38.603,8.691
172,1436608599345,17.881,-38.603,8.691
173,1436608599366,17.881,-38.603,8.691
174,1436608599383,17.881,-38.603,8.691
175,1436608599405,17.881,-38.603,8.691
176,1436608599423,17.881,-38.603,8.691
177,1436608599443,17.881,-38.603,8.691
178,1436608599465,17.881,-38.603,8.691
179,1436608599487,17.881,-38.603,8.691
180,1436608599506,17.881,-38.603,8.691
181,1436608599526,17.881,-38.603,8.691
182,1436608599547,17.881,-38.603,8.691
183,1436608599567,17.881,-38.603,8.691
184,1436608599587,17.881,-38.603,8.691
185,1436608599606,17.881,-38.603,8.691
186,1436608599627,17.881,-38.603,8.691
187,1436608599647,17.881,-38.603,8.691
188,1436608599664,17.881,-38.603,8.691
189,1436608599687,17.881,-38.603,8.691
190,1436608599707,17.881,-38.603,8.691
191,1436608599727,17.881,-38.603,8.691
192,1436608599747,17.881,-38.603,8.691
193,1436608599767,17.881,-38.603,8.691
194,1436608599786,17.881,-38.603,8.691
195,1436608599807,17.881,-38.603,8.691
196,1436608599827,17.881,-38.603,8.691
197,1436608599848,17.881,-38.603,8.691
198,1436608599867,17.881,-38.603,8.691
199,1436608599888,17.881,-38.603,8.691
200,1436608599907,17.881,-38.603,8.691
201,1436608599925,17.881,-38.603,8.691
202,1436608600031,17.881,-38.603,8.691
203,1436608600032,17.881,-38.603,8.691
204,1436608600033,17.881,-38.603,8.691
205,1436608600034,17.881,-38.603,8.691
206,1436608600035,17.881,-38.603,8.691
207,1436608600069,17.881,-38.603,8.691
208,1436608600071,17.881,-38.603,8.691
209,1436608600092,17.881,-38.603,8.691
210,1436608600106,17.881,-38.603,8.691
211,1436608600135,17.881,-38.603,8.691
212,1436608600145,17.881,-38.603,8.691
213,1436608600164,17.881,-38.603,8.691
214,1436608600193,17.881,-38.603,8.691
215,1436608600205,17.881,-38.603,8.691
216,1436608600228,17.881,-38.603,8.691
217,1436608600247,17.881,-38.603,8.691
218,1436608600268,17.881,-38.603,8.691
219,1436608600288,17.881,-38.603,8.691
220,1436608600310,17.881,-38.603,8.691
221,1436608600328,17.881,-38.603,8.691
222,1436608600348,17.881,-38.603,8.691
223,1436608600368,17.881,-38.603,8.691
224,1436608600388,17.881,-38.603,8.691
225,1436608600407,17.881,-38.603,8.691
226,1436608600425,17.881,-38.603,8.691
227,1436608600449,17.881,-38.603,8.691
228,1436608600466,17.881,-38.603,8.691
229,1436608600487,17.881,-38.603,8.691
230,1436608600507,17.881,-38.603,8.691
231,1436608600527,17.881,-38.603,8.691
232,1436608600548,17.881,-38.603,8.691
233,1436608600568,17.881,-38.603,8.691
234,1436608600587,17.881,-38.603,8.691
235,1436608600606,17.881,-38.603,8.691
236,1436608600627,17.881,-38.603,8.691
237,1436608600647,17.881,-38.603,8.691
238,1436608600668,17.881,-38.603,8.691
239,1436608600693,17.881,-38.603,8.691
240,1436608600705,17.881,-38.603,8.691
241,1436608600748,17.881,-38.603,8.691
242,1436608600749,17.881,-38.603,8.691
243,1436608600770,17.881,-38.603,8.691
244,1436608600787,17.881,-38.603,8.691
245,1436608600806,17.881,-38.603,8.691
246,1436608600825,17.881,-38.603,8.691
247,1436608600849,17.881,-38.603,8.691
248,1436608600865,17.881,-38.603,8.691
249,1436608600887,17.881,-38.603,8.691
250,1436608600907,17.881,-38.603,8.691
251,1436608600926,17.881,-38.603,8.691
252,1436608600948,17.881,-38.603,8.691
253,1436608600965,17.881,-38.603,9.004
254,1436608600987,17.881,-38.603,9.004
255,1436608601008,17.881,-38.603,9.004
256,1436608601027,17.881,-38.603,9.004
257,1436608601045,17.881,-38.603,9.004
258,1436608601067,17.881,-38.603,9.004
259,1436608601089,17.881,-38.603,9.004
260,1436608601108,17.881,-38.603,9.004
261,1436608601128,17.881,-38.603,9.004
262,1436608601146,17.881,-38.603,9.004
263,1436608601167,17.881,-38.603,8.679
264,1436608601186,17.881,-38.603,8.679
265,1436608601205,17.881,-38.603,8.679
266,1436608601225,17.881,-38.603,8.679
267,1436608601246,17.881,-38.603,8.679
268,1436608601271,17.881,-38.603,8.679
269,1436608601291,17.881,-38.603,8.679
270,1436608601314,17.881,-38.603,8.679
271,1436608601329,17.881,-38.603,8.679
272,1436608601345,17.881,-38.603,8.679
273,1436608601366,17.526,-38.603,8.679
274,1436608601386,17.526,-38.603,8.679
275,1436608601406,17.526,-38.603,8.679
276,1436608601425,17.15,-38.912,8.679
277,1436608601478,17.15,-38.912,8.679
278,1436608601481,17.15,-38.912,8.679
279,1436608601498,16.683,-38.912,8.679
280,1436608601505,16.683,-39.216,8.679
281,1436608601531,16.351,-39.216,8.679
282,1436608601546,15.881,-39.216,8.679
283,1436608601566,15.481,-39.216,8.679
284,1436608601588,15.481,-39.544,8.679
285,1436608601607,14.95,-39.544,8.679
286,1436608601629,14.95,-39.544,8.679
287,1436608601646,14.335,-39.857,8.679
288,1436608601668,14.025,-39.857,8.679
289,1436608601686,14.025,-39.857,8.679
290,1436608601709,13.664,-39.857,8.372
291,1436608601729,13.664,-40.237,8.372
292,1436608601749,13.664,-40.237,8.372
293,1436608601769,13.351,-40.237,8.372
294,1436608601789,13.351,-40.237,8.372
295,1436608601810,13.351,-40.562,7.989
296,1436608601829,12.937,-40.562,7.989
297,1436608601849,12.937,-40.562,7.989
298,1436608601869,12.599,-40.562,7.989
299,1436608601886,12.599,-40.863,7.989
300,1436608601909,12.165,-40.863,7.583
301,1436608601929,12.165,-40.863,7.583
302,1436608601950,11.708,-40.863,7.583
303,1436608601971,11.708,-40.863,7.583
304,1436608601987,11.306,-41.186,7.583
305,1436608602009,11.306,-41.186,7.583
306,1436608602027,10.893,-41.186,7.255
307,1436608602047,10.893,-41.186,7.255
308,1436608602071,10.443,-41.186,7.255
309,1436608602089,10.443,-41.186,7.255
310,1436608602109,10.121,-41.186,7.255
311,1436608602126,10.121,-41.186,7.255
312,1436608602146,9.8,-41.491,7.255
313,1436608602174,9.8,-41.491,7.255
314,1436608602197,9.468,-41.491,7.255
315,1436608602206,9.468,-41.491,7.255
316,1436608602226,9.468,-41.491,7.255
317,1436608602246,9.039,-41.491,7.255
318,1436608602266,9.039,-41.491,7.255
319,1436608602286,9.039,-41.491,7.255
320,1436608602306,8.68,-41.491,7.255
321,1436608602328,8.68,-41.806,7.255
322,1436608602347,8.68,-41.806,7.255
323,1436608602368,8.68,-41.806,7.255
324,1436608602387,8.68,-41.806,7.255
325,1436608602409,8.68,-41.806,7.255
326,1436608602430,8.377,-41.806,7.255
327,1436608602450,8.377,-41.806,7.255
328,1436608602468,8.377,-41.806,7.255
329,1436608602491,8.377,-41.806,7.255
330,1436608602510,8.377,-41.806,7.255
331,1436608602529,8.377,-41.806,7.255
332,1436608602550,8.377,-41.806,7.255
333,1436608602570,8.377,-41.806,7.255
334,1436608602590,8.377,-41.806,7.255
335,1436608602610,8.377,-41.806,7.255
336,1436608602626,8.377,-41.806,7.255
337,1436608602650,8.682,-41.806,7.255
338,1436608602669,8.682,-41.806,7.255
339,1436608602691,8.682,-41.806,7.255
340,1436608602709,8.682,-41.806,7.255
341,1436608602730,8.999,-41.806,7.255
342,1436608602750,8.999,-41.806,7.255
343,1436608602770,8.999,-41.806,7.255
344,1436608602788,9.31,-41.806,7.255
345,1436608602810,9.31,-41.806,7.255
346,1436608602830,9.31,-41.806,7.255
347,1436608602850,9.674,-41.806,7.255
348,1436608602870,9.674,-41.806,7.255
349,1436608602893,9.674,-41.806,7.559
350,1436608602943,10.087,-41.502,7.559
351,1436608602958,10.087,-41.502,7.559
352,1436608602959,10.087,-41.502,7.559
353,1436608602968,10.536,-41.502,7.559
354,1436608602990,10.536,-41.502,7.559
355,1436608603027,10.864,-41.502,7.559
356,1436608603028,10.864,-41.502,7.559
357,1436608603047,11.221,-41.192,7.559
358,1436608603132,11.221,-41.192,7.559
359,1436608603133,11.575,-41.192,7.559
360,1436608603134,11.575,-41.192,7.559
361,1436608603135,11.946,-41.192,7.559
362,1436608603176,11.946,-40.856,7.559
363,1436608603177,12.275,-40.856,7.559
364,1436608603190,12.275,-40.856,7.559
365,1436608603208,12.609,-40.856,7.559
366,1436608603229,12.609,-40.856,7.559
367,1436608603250,12.928,-40.856,7.559
368,1436608603270,12.928,-40.528,7.559
369,1436608603290,13.249,-40.528,7.559
370,1436608603310,13.249,-40.528,7.559
371,1436608603328,13.557,-40.528,7.859
372,1436608603350,13.557,-40.528,7.859
373,1436608603370,13.557,-40.528,7.859
374,1436608603390,13.973,-40.528,7.859
375,1436608603410,13.973,-40.528,7.859
376,1436608603430,13.973,-40.19,7.859
377,1436608603448,14.395,-40.19,7.859
378,1436608603468,14.395,-40.19,7.859
379,1436608603490,14.395,-40.19,7.859
380,1436608603510,14.776,-40.19,7.859
381,1436608603530,14.776,-40.19,7.859
382,1436608603550,14.776,-40.19,7.859
383,1436608603571,15.15,-39.889,7.859
384,1436608603589,15.15,-39.889,7.859
385,1436608603610,15.15,-39.889,7.859
386,1436608603632,15.489,-39.889,7.859
387,1436608603650,15.489,-39.889,7.859
388,1436608603670,15.489,-39.889,8.16
389,1436608603688,15.792,-39.889,8.16
390,1436608603714,15.792,-39.889,8.16
391,1436608603782,15.792,-39.559,8.16
392,1436608603783,15.792,-39.559,8.16
393,1436608603784,16.143,-39.559,8.16
394,1436608603792,16.143,-39.559,8.16
395,1436608603808,16.143,-39.559,8.16
396,1436608603829,16.143,-39.559,8.16
397,1436608603848,16.47,-39.559,8.16
398,1436608603871,16.47,-39.559,8.16
399,1436608603889,16.47,-39.212,8.16
400,1436608603908,16.47,-39.212,8.16
401,1436608603930,16.787,-39.212,8.16
402,1436608603949,16.787,-39.212,8.16
403,1436608603969,16.787,-39.212,8.16
404,1436608603988,16.787,-39.212,8.16
405,1436608604009,17.121,-39.212,8.16
406,1436608604028,17.121,-38.851,8.16
407,1436608604049,17.121,-38.851,8.16
408,1436608604068,17.121,-38.851,8.16
409,1436608604090,17.425,-38.851,8.16
410,1436608604110,17.425,-38.851,8.16
411,1436608604131,17.425,-38.851,8.16
412,1436608604151,17.425,-38.851,8.16
413,1436608604169,17.745,-38.549,8.16
414,1436608604190,17.745,-38.549,8.16
415,1436608604213,17.745,-38.549,8.16
416,1436608604229,17.745,-38.549,8.16
417,1436608604248,17.745,-38.549,8.16
418,1436608604268,17.745,-38.549,8.16
419,1436608604292,17.745,-38.549,8.16
420,1436608604312,17.745,-38.549,8.16
421,1436608604334,17.745,-38.549,8.16
422,1436608604350,17.745,-38.549,8.16
423,1436608604370,17.745,-38.549,8.16
424,1436608604388,17.745,-38.549,8.16
425,1436608604409,17.745,-38.549,8.16
426,1436608604430,17.745,-38.549,8.16
427,1436608604451,17.745,-38.549,8.16
428,1436608604503,17.745,-38.549,8.16
429,1436608604504,17.745,-38.549,8.16
430,1436608604508,17.745,-38.549,8.16
431,1436608604528,17.745,-38.549,8.16
432,1436608604548,17.745,-38.549,8.16
433,1436608604569,17.745,-38.549,8.16
434,1436608604588,17.428,-38.549,8.16
435,1436608604609,17.428,-38.549,8.16
436,1436608604629,17.428,-38.549,8.16
437,1436608604651,17.428,-38.549,8.16
438,1436608604672,17.428,-38.549,8.16
439,1436608604689,17.428,-38.549,7.853
440,1436608604710,17.428,-38.859,7.853
441,1436608604732,17.428,-38.859,7.853
442,1436608604752,17.428,-38.859,7.853
443,1436608604772,17.428,-38.859,7.853
444,1436608604790,17.428,-38.859,7.853
445,1436608604810,17.428,-38.859,7.853
446,1436608604830,17.428,-38.859,7.853
447,1436608604852,17.428,-38.859,7.853
448,1436608604872,17.428,-38.859,7.853
449,1436608604890,17.428,-38.859,7.853
450,1436608604910,17.428,-38.859,7.853
451,1436608604932,17.428,-38.859,7.853
452,1436608604952,17.428,-38.859,7.853
453,1436608604972,17.428,-38.859,7.853
454,1436608604992,17.428,-38.859,7.853
455,1436608605011,17.428,-38.859,7.853
456,1436608605033,17.428,-38.859,7.853
457,1436608605052,17.428,-38.859,7.853
458,1436608605072,17.428,-38.859,7.853
459,1436608605090,17.428,-38.859,7.853
460,1436608605112,17.428,-38.859,7.853
461,1436608605130,17.428,-38.859,7.853
462,1436608605150,17.428,-38.859,7.853
463,1436608605169,17.428,-38.859,7.853
464,1436608605191,17.428,-38.859,7.853
465,1436608605254,17.428,-38.859,7.853
466,1436608605255,17.428,-38.859,7.853
467,1436608605256,17.115,-38.859,7.853
468,1436608605283,17.115,-38.859,7.853
469,1436608605290,17.115,-38.859,7.853
470,1436608605309,17.115,-38.859,7.853
471,1436608605329,17.115,-38.859,7.853
472,1436608605357,17.115,-38.859,7.853
473,1436608605369,17.115,-38.859,7.853
474,1436608605390,17.115,-38.859,7.853
475,1436608605410,17.115,-38.859,7.853
476,1436608605429,17.115,-38.859,7.853
477,1436608605449,17.115,-38.859,7.853
478,1436608605469,17.115,-38.859,7.853
479,1436608605491,17.115,-38.859,7.853
480,1436608605509,17.115,-38.859,7.853
481,1436608605529,17.115,-38.859,7.853
482,1436608605550,17.115,-38.859,7.853
483,1436608605571,17.115,-38.859,7.853
484,1436608605590,17.115,-38.859,7.853
485,1436608605610,17.115,-38.859,7.853
486,1436608605630,17.115,-38.859,7.853
487,1436608605651,17.115,-38.859,7.853
488,1436608605672,17.115,-38.859,7.853
489,1436608605692,17.115,-38.859,7.853
490,1436608605710,17.115,-38.859,7.853
491,1436608605731,17.115,-38.859,7.853
492,1436608605750,17.115,-38.859,7.853
493,1436608605772,17.115,-38.859,7.853
494,1436608605792,17.115,-38.859,7.853
495,1436608605811,17.115,-38.859,7.853
496,1436608605830,17.115,-38.859,7.853
497,1436608605852,17.115,-38.859,7.853
498,1436608605872,17.115,-38.859,7.853
499,1436608605891,17.115,-38.859,7.853
500,1436608605911,17.115,-38.859,7.853
501,1436608605951,17.115,-38.859,7.853
502,1436608605952,17.115,-38.859,7.853
503,1436608605994,17.115,-38.859,7.853
504,1436608605995,17.115,-38.859,7.853
505,1436608606010,17.115,-38.859,7.853
506,1436608606031,17.115,-38.859,7.853
507,1436608606050,17.115,-38.859,7.853
508,1436608606075,17.115,-38.859,7.853
509,1436608606090,17.115,-38.859,7.853
510,1436608606110,17.115,-38.859,7.853
511,1436608606130,17.115,-38.859,7.853
512,1436608606150,17.115,-38.859,7.853
513,1436608606170,17.115,-38.859,7.853
514,1436608606191,16.801,-38.859,7.853
515,1436608606210,16.801,-38.859,7.853
516,1436608606230,16.801,-38.859,7.853
517,1436608606250,16.801,-38.859,7.853
