id,attr_time,attr_db
1,1436619018318,39.068910835702
2,1436619019038,36.6627793535941
3,1436619019624,35.8033786858994
4,1436619020278,37.5386042090395
5,1436619020890,37.8404867064556
6,1436619021590,45.9204172457489
7,1436619022257,39.2536863374124
8,1436619022885,49.0748475090294
9,1436619023571,42.7008022060273
10,1436619024342,35.4484174068117
11,1436619025070,43.4290751331934
12,1436619025800,36.3009573068099
13,1436619026547,36.1167963124555
14,1436619027310,39.8055646408566
15,1436619028047,38.9671155569671
16,1436619028853,44.2035261434336
17,1436619029539,35.0369640926851
18,1436619030149,35.5953612669669
19,1436619030798,35.8302274584485
20,1436619031468,40.7576554193874
21,1436619032090,55.8138663429268
22,1436619032768,36.2887677390402
23,1436619033504,52.2278670859432
24,1436619034315,39.594135032316
25,1436619034961,37.3974369901224
26,1436619035653,40.4746308692627
27,1436619036375,38.1871140449919
28,1436619037126,40.1377927088115
29,1436619037861,40.5094387463771
30,1436619038618,34.2331924035931
31,1436619039358,41.9381704791556
32,1436619040114,35.8643032482085
33,1436619040853,34.5715943083134
34,1436619041584,36.7860088532984
35,1436619042361,37.8282082102524
36,1436619043279,36.2740274671817
37,1436619044002,28.3762965603827
38,1436619044734,38.3780236711748
39,1436619045459,38.7380628315479
40,1436619046252,30.4620334328338
41,1436619046988,42.1911560384891
42,1436619047631,35.0992341896736
43,1436619048375,43.6049353443472
44,1436619049123,42.0721837355403
45,1436619049861,35.8976396411831
46,1436619050609,33.430375388258
47,1436619051293,41.4037487147611
48,1436619052038,38.13747413035
49,1436619052784,37.0778691791242
50,1436619053583,39.0868906270642
51,1436619054333,34.206828706291
52,1436619055067,41.3795914660591
53,1436619055801,39.4286523072462
54,1436619056471,35.268617084574
55,1436619057051,36.5112770023396
56,1436619057732,38.1880904612182
57,1436619058526,35.7316705349326
58,1436619059308,41.0025939198748
59,1436619059917,37.2421793994096
60,1436619060608,40.8638249231604
61,1436619061389,36.8054163100855
62,1436619062054,38.5192089514712
63,1436619062782,38.4154931246516
64,1436619063531,35.4376483047493
65,1436619064272,34.4952192200533
66,1436619064983,35.3806565447672
67,1436619065674,36.4364189353388
68,1436619066405,35.2603669922633
69,1436619067133,35.1599117160342
70,1436619067805,35.5988120711083
71,1436619068561,42.7349508181131
72,1436619069315,37.4475977570808
73,1436619070068,38.3620600741849
74,1436619070758,39.1053971654269
75,1436619072179,46.610437684025
76,1436619072942,48.2059391824595
77,1436619073620,34.3494290858191
78,1436619074289,37.1179033206921
79,1436619075037,34.0585930483491
80,1436619075768,37.3436393283753
81,1436619076498,40.0798501247772
82,1436619077220,38.3278123828557
83,1436619078885,39.0434299808099
84,1436619079622,38.6455346762464
85,1436619080354,32.9274865944023
86,1436619081075,32.0360520664471
87,1436619081712,34.9779517544548
88,1436619082447,31.2055286509995
89,1436619083220,30.9134465079963
90,1436619083944,34.163446772326
91,1436619085664,37.8780015961138
92,1436619086347,37.6372746337094
93,1436619087048,42.202532513084
94,1436619087693,38.2636945506723
95,1436619088359,33.4185913004599
96,1436619089069,33.5888575196696
97,1436619090378,36.2978455731521
98,1436619091033,32.3606673634127
99,1436619091719,32.2538223832289
100,1436619092435,33.2164252553366
101,1436619093172,38.7511726827287
102,1436619093895,37.3185863206425
103,1436619094642,35.9022507785095
104,1436619095349,32.5639384423555
105,1436619096091,33.1688363015135
106,1436619096821,37.2933718619298
107,1436619097591,35.7173120550134
108,1436619098330,35.65304169653
109,1436619099069,33.2986962007919
110,1436619099813,33.5080233637292
111,1436619100570,45.1907272680224
112,1436619101173,36.5317705856211
113,1436619101763,38.501213717018
114,1436619102363,44.0136553933955
115,1436619102952,29.9230149565977
116,1436619103559,31.4115186227314
117,1436619104220,42.9610881680439
118,1436619104938,33.5784419216246
119,1436619105545,32.8123099498976
120,1436619106120,35.32867342944
121,1436619106680,39.3217260961853
122,1436619107271,32.3187112658853
123,1436619107868,37.5911724675654
124,1436619108453,32.8593619186412
125,1436619109777,30.1852998400489
126,1436619110515,46.6517517276127
127,1436619111224,31.475887075677
128,1436619111819,34.5754247087952
129,1436619112427,33.4738400376483
130,1436619113000,55.669155218368
131,1436619113551,32.9850825126696
132,1436619114141,33.4883261239022
133,1436619114802,38.5561618962965
134,1436619115607,29.2381725543561
135,1436619116384,35.1600069246589
136,1436619116965,34.269228184891
137,1436619117514,38.7479753694316
138,1436619118060,42.6408439931414
139,1436619118618,36.2289783819807
140,1436619119703,39.844796522666
141,1436619120441,31.8677995690079
142,1436619121181,37.0256224572897
143,1436619121933,29.0512545162856
144,1436619122659,29.9837013834117
145,1436619123334,35.5693345760062
146,1436619124054,45.1212254806282
147,1436619124633,37.34038779099
148,1436619125190,39.4582869822285
149,1436619125750,39.5544048836399
150,1436619126325,32.4915200401463
151,1436619127065,38.7688985963499
152,1436619127857,33.9220074586029
153,1436619128531,38.9940138957994
154,1436619129081,33.0777786212992
155,1436619129635,34.8538051129476
156,1436619130215,29.9725906625735
157,1436619130767,35.7863610127862
158,1436619132234,39.0551217165126
159,1436619132964,39.6184434230289
160,1436619133683,34.9444441978381
161,1436619134604,30.5443003616638
162,1436619135198,32.5289789082269
163,1436619135921,33.8825134170086
164,1436619136649,46.6509548055275
165,1436619137392,37.6698845170172
166,1436619138129,28.6791092660516
167,1436619138809,39.0973837489614
168,1436619139511,41.1517416054128
169,1436619140165,33.1848818880312
170,1436619140962,31.0505022503768
171,1436619141763,35.8841765433375
172,1436619142519,42.2232269627064
173,1436619143296,35.9849694912546
174,1436619144053,29.4084049571752
175,1436619144783,32.7955020228263
176,1436619145492,38.2859437546833
177,1436619146112,37.9849726663085
178,1436619146779,33.9060401735074
179,1436619147549,32.2301116760766
180,1436619148372,36.2508099552423
181,1436619149120,41.4175811548515
182,1436619149840,59.1183360160692
183,1436619150575,73.9853688345896
184,1436619151305,42.4088132747122
185,1436619152042,42.8263669376077
186,1436619152710,36.0506544635256
187,1436619153459,39.5094346181453
188,1436619154124,34.5219078822016
189,1436619154865,35.5525516325058
190,1436619155654,40.0227574555872
191,1436619156347,39.0875033676129
192,1436619157075,38.8604341386423
193,1436619157790,45.7396900222102
194,1436619158525,42.0586419952996
195,1436619159294,43.7817926896694
196,1436619160029,36.2491159677692
197,1436619160774,40.1542476121638
198,1436619161490,39.6907517333634
199,1436619162149,37.687265850923
200,1436619162888,45.797728092743
201,1436619163626,39.7994397444014
202,1436619164370,67.2067104948372
203,1436619165105,57.1924514231403
204,1436619165804,39.7344770407763
205,1436619166466,37.1015941676231
206,1436619167167,40.8666615303081
207,1436619167919,25.187345726795
208,1436619168620,39.9843240283284
209,1436619169308,51.2585449634428
210,1436619170042,37.7457863351568
211,1436619170784,51.71238556975
212,1436619171535,42.0447524525041
213,1436619172339,35.4434492839273
214,1436619173085,48.8351582495353
215,1436619173814,28.0421342852016
216,1436619174504,61.1855689680448
217,1436619175155,45.8018239935387
218,1436619175887,41.8873726902409
219,1436619176583,59.714502762371
220,1436619177237,65.7049567556115
221,1436619177951,39.6195868741484
222,1436619178678,37.6612801829492
223,1436619179438,43.7860057076303
224,1436619180190,45.2320020688971
225,1436619180930,47.4008295013153
226,1436619181672,38.921189462148
227,1436619182401,37.5812678395156
228,1436619183142,37.1496669955849
229,1436619183841,54.7404793469066
230,1436619184568,37.4272049909393
231,1436619185299,43.7603934109552
232,1436619186047,36.0686181488551
233,1436619186750,42.4019294653528
234,1436619187445,41.7603489497234
235,1436619188209,37.2620604551943
236,1436619188938,32.8645907326797
237,1436619189661,34.6053603365136
238,1436619190407,37.730453960881
239,1436619191149,35.1788425951092
240,1436619191861,38.3399612124205
241,1436619192713,37.2337992250901
242,1436619193376,41.1629369407737
243,1436619194117,38.9108643291691
244,1436619194855,52.6289551907112
245,1436619195606,43.0520233216452
246,1436619196310,57.7909734299929
247,1436619196944,55.4445355776129
248,1436619197594,36.8193902838235
249,1436619198254,42.2848872769364
250,1436619199005,37.8916729183316
251,1436619199761,42.2615593129067
252,1436619200497,34.7657852882677
253,1436619201270,36.6614455849258
254,1436619202018,42.5333355647834
255,1436619202672,45.5341132560166
256,1436619203460,41.1275600032807
257,1436619204256,37.2298608114235
258,1436619204994,42.9142666163074
259,1436619205718,58.0105730631002
260,1436619206453,15.4724491371677
261,1436619207232,40.5844153445795
262,1436619207988,41.2976160047322
263,1436619208761,38.3412563432268
264,1436619209489,36.7140695112876
265,1436619210259,35.7006022995797
266,1436619210883,48.6878806921795
267,1436619211583,34.5114896948702
268,1436619212305,64.2522802965331
269,1436619213158,35.1795165962814
270,1436619213844,40.2112072825345
271,1436619214557,38.1719926078369
272,1436619215221,39.6762087678966
273,1436619215952,31.3741672280508
274,1436619216696,36.8466207926843
275,1436619217461,38.2210714959028
276,1436619218213,48.6020755363814
277,1436619218964,42.7103841571005
278,1436619219732,37.7974717378723
279,1436619220483,59.5600431480258
280,1436619221213,42.2887870455387
281,1436619221906,38.7295917890262
282,1436619222587,35.8793370095417
283,1436619223330,38.9612046798218
284,1436619224059,75.7016104289612
285,1436619224711,74.7748534154952
286,1436619225442,45.4044403823158
287,1436619226215,46.2489918952208
288,1436619226948,66.766577335929
289,1436619227719,38.7515484590777
290,1436619228507,35.2458360524809
291,1436619229121,38.8305283497586
292,1436619229832,35.708270796773
293,1436619230581,68.8028532530691
294,1436619231328,69.67678868839
295,1436619232080,71.7399605999686
296,1436619232743,76.5809971955554
297,1436619233649,35.0404847708731
298,1436619234312,36.8949349757659
299,1436619235013,39.7732981507841
300,1436619235679,36.3372435679185
301,1436619236431,38.4641201659459
302,1436619237094,60.9214730591749
303,1436619237839,39.9979508232071
304,1436619238585,28.147564715735
305,1436619239321,34.9346319576165
306,1436619240047,53.3157954698853
307,1436619240787,33.9875677811898
308,1436619241492,39.6506546117074
309,1436619242189,34.5878829255834
310,1436619242918,42.0352589664627
311,1436619243699,35.3334681300963
312,1436619244441,36.9641207840322
313,1436619245290,38.9994363831902
314,1436619246011,39.4020056370941
315,1436619246746,35.0521465705482
316,1436619247554,53.9141002364087
317,1436619248285,43.6191832253609
318,1436619248966,60.4893767250321
319,1436619249520,52.1528616135493
320,1436619250149,47.4603669002284
321,1436619250831,52.7774873802728
322,1436619251545,68.4333990430822
323,1436619252271,42.0681163499454
324,1436619252915,43.0953913900607
325,1436619253707,40.4012211700493
326,1436619254296,36.667629325742
327,1436619254969,45.7918964138539
328,1436619255670,46.4444541707734
329,1436619256412,43.0716984632053
330,1436619257090,37.7279462726499
331,1436619257750,40.0142016293101
332,1436619258476,50.390307225752
333,1436619259250,61.9200075081731
334,1436619259994,46.3437327141541
335,1436619260791,34.8113556702102
336,1436619261539,39.4760557499711
337,1436619262288,34.5595784918421
338,1436619262917,59.9588569765845
339,1436619263613,37.719101886069
340,1436619264331,43.8223450241397
341,1436619265093,44.1884730881119
342,1436619265814,34.4442612920167
343,1436619266596,62.2904290465702
344,1436619267333,42.1373659124923
345,1436619268034,37.3441238305641
346,1436619268692,46.6585328828099
347,1436619269423,49.2228147744007
348,1436619270194,38.1075992705072
349,1436619270940,43.0880957817163
350,1436619271674,30.4768888594662
351,1436619272401,58.0192359830358
352,1436619273204,50.6165888619184
353,1436619273967,44.1025080656916
354,1436619274631,45.1988605448645
355,1436619275305,34.0353907924503
356,1436619276737,37.8970797805901
357,1436619277464,45.3218383438333
358,1436619278197,36.8946947609793
359,1436619278898,39.8754848922518
360,1436619279538,47.9428684193291
361,1436619280195,38.2618738894932
362,1436619280924,40.9617759267911
363,1436619281650,30.3253413101615
364,1436619282382,62.1161848316862
365,1436619283142,57.8985213433924
366,1436619283942,35.4962418384636
367,1436619284673,42.4874083434292
368,1436619285391,40.9318995923942
369,1436619287123,45.2136762369362
370,1436619287780,38.1798109726176
371,1436619288550,42.8526327788219
372,1436619289362,44.303618991639
373,1436619290102,58.5278820091862
374,1436619290859,37.0163798016574
375,1436619291607,37.946419853162
376,1436619292333,62.7313470081662
377,1436619293068,42.2724961502057
378,1436619293818,42.498583859079
379,1436619294518,41.2603493810614
380,1436619295144,42.4920274382572
381,1436619295848,61.6950778919033
382,1436619296603,54.0429273071185
383,1436619297412,40.7746262194977
384,1436619298159,36.4362857277168
385,1436619298887,35.8813263494152
386,1436619299643,58.1155565763676
387,1436619300340,61.3079114054639
388,1436619302009,41.7140561938412
389,1436619302657,55.1913234775043
390,1436619303391,36.6644057790845
391,1436619304130,38.5677601914257
392,1436619304867,42.1003997799433
393,1436619305602,38.2095037572844
394,1436619306364,43.9461978456571
395,1436619307121,43.6760639018017
396,1436619307863,37.6075311042065
397,1436619308643,34.7492676326372
398,1436619309324,55.2259007400816
399,1436619310619,39.3768610257301
400,1436619311268,40.7469107920038
401,1436619311999,35.1182839975427
402,1436619312739,36.6231082504842
403,1436619313459,42.9479205733863
404,1436619314055,40.844664492792
405,1436619314677,38.6984907845029
406,1436619315322,40.1807688243285
407,1436619316054,40.2826093742928
408,1436619316781,48.9265762748046
409,1436619317533,60.356590238333
410,1436619318282,40.3673030158816
411,1436619319005,43.5487169901195
412,1436619319922,39.9532119614631
413,1436619320529,33.3465142460926
414,1436619321182,36.5113646665975
415,1436619321889,37.3221573008239
416,1436619322617,46.7530858167123
417,1436619323299,40.1256766398132
418,1436619324024,38.2689804986217
419,1436619324693,38.2655078561272
420,1436619325447,38.0774137271928
421,1436619326212,39.7285847759233
422,1436619326944,43.1707726413385
423,1436619327705,43.4617523735533
424,1436619328456,38.1006872720793
425,1436619329190,31.9440226274148
426,1436619329841,38.6846047985165
427,1436619330573,38.0034655340674
428,1436619331312,43.3982184387068
429,1436619332045,45.3451697064328
430,1436619332758,38.3549044760141
431,1436619333459,63.8114546269745
432,1436619334105,38.7061920277182
433,1436619334878,31.2281793474614
434,1436619335459,55.739195865533
435,1436619336120,49.6280908190272
436,1436619336853,51.868874385985
437,1436619337571,44.5624093779011
438,1436619338232,40.0912510427899
439,1436619339002,57.4953921331857
440,1436619339632,34.0806794192063
441,1436619340298,37.4711873095228
442,1436619340993,48.2842119428527
443,1436619341728,40.3742330979567
444,1436619342490,38.3587187168424
445,1436619343278,60.9613387971158
446,1436619343975,51.2381586548843
447,1436619344626,56.2992740014522
448,1436619345347,39.1160164079768
449,1436619346150,47.1799761960633
450,1436619346829,48.3107134383378
451,1436619347630,37.7709550983948
452,1436619348394,32.3695505785256
453,1436619349140,60.7882448225883
454,1436619349818,44.2699516896102
455,1436619350578,64.3209901279884
456,1436619351149,51.6225633034135
457,1436619351777,42.7864412091165
458,1436619352540,43.7342801677264
459,1436619353284,48.9779662821671
460,1436619353920,57.4238686915919
461,1436619354607,37.5332690978606
462,1436619355404,25.8004152796089
463,1436619356158,45.0564290698881
464,1436619356927,56.6821277061431
465,1436619357585,38.2430233888932
466,1436619358351,33.4701323837354
467,1436619359087,21.7893616296473
468,1436619359824,32.1944185793144
469,1436619360517,44.4380538068787
470,1436619361094,28.9323867144498
471,1436619361753,59.6413055329542
472,1436619362529,73.1396883497019
473,1436619363293,34.7500656176272
474,1436619364005,57.1037861216043
475,1436619364623,64.580037233277
476,1436619365355,42.2396057689608
477,1436619366086,32.7212429582113
478,1436619366758,61.6245395425015
479,1436619367522,45.201966881919
480,1436619368267,45.2934839949867
481,1436619368919,44.3675698703515
482,1436619369592,64.7695773229153
483,1436619370293,36.6506284325569
484,1436619371031,69.0997495846312
485,1436619371724,55.1256497464457
486,1436619372301,57.7024765988865
487,1436619372931,56.9577612110125
488,1436619373676,41.0368518014959
489,1436619374438,35.0913855180115
490,1436619375026,37.097311461829
491,1436619375613,31.2761390130074
492,1436619376194,37.2013335516429
493,1436619376775,44.9183413363997
494,1436619377333,66.8844401671365
495,1436619377903,36.7176755422068
496,1436619378542,34.7404481915321
497,1436619379236,41.9407505966325
498,1436619379886,36.4685127995496
499,1436619380464,32.1365077898662
500,1436619381020,48.3615169889301
501,1436619381572,33.7399953778947
502,1436619382819,60.5068115579588
503,1436619383468,69.0778950472186
504,1436619384033,64.0709136883254
505,1436619385469,43.244912608558
506,1436619386030,58.2218257308013
507,1436619386597,61.2328702399352
508,1436619387154,37.4160245339393
509,1436619387761,66.2979328593194
510,1436619388703,65.9466434227207
511,1436619389307,50.3737981444285
512,1436619389949,40.7787778650115
513,1436619390531,54.7056887324107
514,1436619391079,65.2124161569884
515,1436619391637,37.9236126744067
516,1436619392181,44.9467594777093
517,1436619393498,53.2697232971413
518,1436619394288,57.6547959369982
519,1436619395100,44.0349898188122
520,1436619395735,35.5913192329698
521,1436619396459,61.3301791269292
522,1436619397038,46.2229041784055
523,1436619397603,61.4912445013546
524,1436619398180,58.3812742406472
525,1436619398760,66.8202114135648
526,1436619399370,40.6297158060537
527,1436619400107,36.5198486648847
528,1436619400833,52.271296230976
529,1436619401505,46.1741234044756
530,1436619402162,54.8141558720371
531,1436619402743,39.7029953863607
532,1436619403297,59.1389560659214
533,1436619403859,62.131999122827
534,1436619404426,39.77095862764
535,1436619405788,42.5121111195288
536,1436619406516,46.2980389452671
537,1436619407086,45.0807132299858
538,1436619407752,64.8587382380084
539,1436619408534,45.8342723478851
540,1436619409175,42.0953122195262
541,1436619409927,42.784000448706
542,1436619410708,42.086388811754
543,1436619411397,60.7661210212716
544,1436619412183,60.1787273408063
545,1436619412899,57.0207825419953
546,1436619413622,62.7555552267262
547,1436619414394,71.3597114523849
548,1436619415138,67.8049467626956
549,1436619415832,44.9782041372765
550,1436619416466,63.179868129195
551,1436619417178,55.3191212886292
552,1436619417870,62.0237333856933
553,1436619418459,51.1276087973287
554,1436619419127,41.327688355868
555,1436619419845,55.3616959723793
556,1436619420503,50.9536427367594
557,1436619421077,46.4860866628609
558,1436619421747,52.8636107535453
559,1436619422493,56.4913480300669
560,1436619423313,45.0929229897155
561,1436619424065,44.4904106765906
562,1436619424828,44.228541670726
563,1436619425603,66.1733339542874
564,1436619426246,49.502615324486
565,1436619426975,54.1101015639585
566,1436619427713,50.7504204728838
567,1436619428477,60.1377667763457
568,1436619429294,70.6275750077526
569,1436619430057,55.9978655045827
570,1436619430670,63.8408431869256
571,1436619431355,42.6026064571624
572,1436619432073,45.9510483041959
573,1436619432631,57.9245600540372
574,1436619433267,62.2452265798146
575,1436619434002,67.0987786625155
