id,attr_time,attr_x,attr_y,attr_z
1,1437067245645,44.332,-10.27,-18.383
2,1437067245664,44.332,-10.27,-18.383
3,1437067245684,44.332,-10.27,-18.383
4,1437067245704,44.332,-10.27,-18.383
5,1437067245724,44.332,-10.27,-18.383
6,1437067245743,44.332,-10.27,-18.383
7,1437067245762,44.332,-10.27,-18.383
8,1437067245785,44.332,-10.27,-18.383
9,1437067245804,44.332,-10.27,-18.383
10,1437067245824,44.332,-10.27,-18.383
11,1437067245844,44.332,-10.27,-18.066
12,1437067245863,44.332,-10.27,-18.066
13,1437067245884,44.332,-10.27,-18.066
14,1437067245903,44.332,-10.27,-18.066
15,1437067245924,44.332,-10.27,-18.066
16,1437067245945,44.332,-10.27,-18.066
17,1437067245964,44.332,-10.27,-18.066
18,1437067245984,44.332,-10.27,-18.066
19,1437067246004,44.332,-10.27,-18.066
20,1437067246025,44.332,-10.27,-18.066
21,1437067246045,44.332,-10.27,-18.066
22,1437067246072,44.332,-10.27,-18.066
23,1437067246145,44.332,-10.27,-18.066
24,1437067246146,44.332,-10.27,-18.066
25,1437067246147,44.332,-10.27,-18.066
26,1437067246148,44.332,-10.27,-18.379
27,1437067246163,44.332,-10.27,-18.379
28,1437067246188,44.332,-10.27,-18.379
29,1437067246204,44.332,-10.27,-18.379
30,1437067246224,44.332,-10.27,-18.379
31,1437067246245,44.332,-10.27,-18.379
32,1437067246267,44.332,-10.27,-18.379
33,1437067246291,44.332,-10.27,-18.379
34,1437067246307,44.332,-10.27,-18.379
35,1437067246347,44.332,-10.27,-18.379
36,1437067246348,44.332,-10.27,-18.379
37,1437067246364,44.332,-9.948,-18.379
38,1437067246386,44.332,-9.948,-18.379
39,1437067246404,44.332,-9.948,-18.379
40,1437067246426,44.332,-9.948,-18.379
41,1437067246445,44.332,-9.948,-18.379
42,1437067246464,44.332,-9.948,-18.379
43,1437067246484,44.332,-9.948,-18.379
44,1437067246503,44.332,-9.948,-18.379
45,1437067246524,44.332,-9.948,-18.379
46,1437067246544,44.332,-9.948,-18.379
47,1437067246568,44.332,-9.948,-18.379
48,1437067246584,44.332,-9.948,-18.379
49,1437067246604,44.332,-9.948,-18.379
50,1437067246624,44.332,-9.948,-18.379
51,1437067246644,44.332,-9.948,-18.379
52,1437067246664,44.332,-9.948,-18.379
53,1437067246685,44.332,-9.948,-18.379
54,1437067246704,44.332,-9.948,-18.379
55,1437067246727,44.332,-9.948,-18.379
56,1437067246750,44.332,-9.948,-18.379
57,1437067246765,44.332,-9.948,-18.379
58,1437067246785,44.332,-9.948,-18.379
59,1437067246805,44.332,-9.948,-18.379
60,1437067246832,44.332,-9.948,-18.379
61,1437067246889,44.332,-9.948,-18.379
62,1437067246890,44.332,-9.948,-18.379
63,1437067246891,44.332,-9.948,-18.379
64,1437067246914,44.332,-9.948,-18.379
65,1437067246925,44.332,-9.948,-18.379
66,1437067246949,44.332,-9.948,-18.379
67,1437067246965,44.332,-9.948,-18.379
68,1437067246984,44.332,-9.948,-18.379
69,1437067247007,44.332,-9.948,-18.678
70,1437067247027,44.332,-9.948,-18.678
71,1437067247046,44.332,-9.948,-18.678
72,1437067247066,44.332,-9.948,-18.678
73,1437067247086,44.332,-10.258,-18.678
74,1437067247104,44.332,-10.258,-18.678
75,1437067247126,44.332,-10.258,-18.678
76,1437067247148,44.332,-10.258,-18.678
77,1437067247166,44.332,-10.258,-18.678
78,1437067247186,44.332,-10.258,-18.678
79,1437067247206,44.332,-10.258,-18.678
80,1437067247226,44.332,-10.258,-18.678
81,1437067247247,44.332,-10.258,-18.678
82,1437067247270,44.332,-10.258,-18.678
83,1437067247286,44.332,-10.258,-18.678
84,1437067247307,44.332,-10.258,-18.678
85,1437067247334,44.332,-10.258,-18.678
86,1437067247347,44.332,-10.258,-18.678
87,1437067247392,44.332,-10.258,-18.678
88,1437067247393,44.332,-10.258,-18.678
89,1437067247405,44.332,-10.258,-18.678
90,1437067247424,44.332,-10.258,-18.678
91,1437067247444,44.332,-10.258,-18.678
92,1437067247464,44.332,-10.258,-18.678
93,1437067247484,44.332,-9.945,-18.678
94,1437067247505,44.332,-9.945,-18.678
95,1437067247890,44.332,-9.945,-18.678
96,1437067247891,44.332,-9.945,-18.678
97,1437067247892,44.332,-9.945,-18.678
98,1437067247893,44.332,-9.945,-18.678
99,1437067247894,44.015,-9.945,-18.678
100,1437067247895,44.015,-9.945,-18.678
101,1437067247896,44.015,-9.945,-18.678
102,1437067247897,44.015,-9.945,-18.678
103,1437067247898,44.015,-9.945,-18.678
104,1437067247899,44.015,-9.945,-18.678
105,1437067247900,44.015,-9.945,-18.678
106,1437067247901,44.015,-9.945,-18.678
107,1437067247902,44.015,-9.945,-18.678
108,1437067247903,44.015,-9.945,-18.678
109,1437067247904,44.015,-9.945,-18.678
110,1437067247905,44.015,-9.945,-18.678
111,1437067247906,44.015,-9.945,-18.678
112,1437067247907,44.015,-9.945,-18.678
113,1437067247908,44.015,-9.945,-18.678
114,1437067247923,44.015,-9.945,-18.678
115,1437067247927,44.015,-9.945,-18.678
116,1437067247958,44.015,-9.945,-18.678
117,1437067247967,44.015,-9.945,-18.678
118,1437067247986,44.015,-9.945,-18.678
119,1437067248005,44.015,-9.945,-18.678
120,1437067248025,44.015,-9.945,-18.678
121,1437067248044,44.015,-9.945,-18.678
122,1437067248064,44.015,-9.945,-18.678
123,1437067248084,44.015,-9.945,-18.678
124,1437067248105,44.015,-9.945,-18.678
125,1437067248125,44.015,-9.945,-18.678
126,1437067248149,44.015,-9.945,-18.678
127,1437067248166,44.328,-9.945,-18.359
128,1437067248185,44.328,-9.945,-18.359
129,1437067248205,44.328,-9.945,-18.359
130,1437067248227,44.328,-9.945,-18.359
131,1437067248248,44.328,-9.945,-18.359
132,1437067248269,44.328,-9.945,-18.359
133,1437067248289,44.328,-9.945,-18.359
134,1437067248309,44.328,-9.945,-18.359
135,1437067248326,44.328,-9.634,-18.359
136,1437067248345,44.328,-9.634,-18.359
137,1437067248375,44.328,-9.634,-18.359
138,1437067248385,44.328,-9.634,-18.359
139,1437067248404,44.328,-9.634,-18.359
140,1437067248425,44.328,-9.634,-18.359
141,1437067248447,44.328,-9.634,-18.359
142,1437067248467,44.328,-9.634,-18.359
143,1437067248485,44.328,-9.634,-18.359
144,1437067248510,44.328,-9.634,-18.359
145,1437067248530,44.328,-9.634,-18.359
146,1437067248547,44.328,-9.634,-18.359
147,1437067248567,44.328,-9.634,-18.019
148,1437067248586,44.328,-9.634,-18.019
149,1437067248609,44.328,-9.634,-18.019
150,1437067248625,44.328,-9.634,-18.019
151,1437067248650,44.328,-9.634,-18.019
152,1437067248669,44.328,-9.634,-18.019
153,1437067248688,44.328,-9.956,-18.019
154,1437067248705,44.328,-9.956,-18.019
155,1437067248728,44.328,-9.956,-18.019
156,1437067248749,44.328,-9.956,-18.019
157,1437067248769,44.328,-9.956,-17.706
158,1437067248789,44.328,-9.956,-17.706
159,1437067248807,44.328,-9.956,-17.706
160,1437067248826,44.328,-9.956,-17.706
161,1437067248846,44.644,-10.307,-17.706
162,1437067248865,44.644,-10.307,-17.39
163,1437067248888,44.644,-10.307,-17.39
164,1437067248909,44.644,-10.307,-17.39
165,1437067248929,44.644,-10.307,-17.39
166,1437067248947,44.644,-10.307,-17.39
167,1437067248965,44.644,-10.662,-17.077
168,1437067248995,44.644,-10.662,-17.077
169,1437067249011,44.644,-10.662,-17.077
170,1437067249031,44.644,-10.662,-16.76
171,1437067249046,44.956,-10.974,-16.76
172,1437067249066,44.956,-10.974,-16.435
173,1437067249088,44.956,-10.974,-16.435
174,1437067249106,44.956,-10.974,-16.094
175,1437067249129,44.956,-11.276,-16.094
176,1437067249151,45.275,-11.276,-15.536
177,1437067249168,45.275,-11.276,-15.536
178,1437067249188,45.275,-11.276,-15.112
179,1437067249206,45.275,-11.599,-14.714
180,1437067249227,45.275,-11.599,-14.385
181,1437067249246,45.579,-11.599,-13.934
182,1437067249268,45.579,-11.599,-13.626
183,1437067249291,45.579,-11.599,-13.626
184,1437067249310,45.579,-11.599,-13.626
185,1437067249329,45.579,-11.932,-13.201
186,1437067249349,45.921,-11.932,-13.201
187,1437067249370,45.921,-11.932,-13.201
188,1437067249390,45.921,-11.932,-13.201
189,1437067249409,45.921,-11.932,-13.201
190,1437067249427,45.921,-11.932,-12.849
191,1437067249447,46.223,-11.932,-12.849
192,1437067249466,46.223,-11.932,-12.849
193,1437067249487,46.223,-11.932,-12.492
194,1437067249506,46.223,-11.932,-12.492
195,1437067249529,46.223,-11.544,-12.492
196,1437067249549,46.223,-11.544,-12.155
197,1437067249567,46.223,-11.544,-12.155
198,1437067249588,46.574,-11.134,-12.155
199,1437067249607,46.574,-11.134,-12.155
200,1437067249630,46.574,-10.719,-11.851
201,1437067249647,46.574,-10.244,-11.851
202,1437067249762,46.574,-10.244,-11.851
203,1437067249763,46.916,-9.477,-11.851
204,1437067249764,46.916,-9.103,-11.851
205,1437067249777,46.916,-8.436,-11.851
206,1437067249778,46.916,-7.919,-11.851
207,1437067249779,46.916,-7.408,-11.851
208,1437067249797,46.916,-7.408,-11.851
209,1437067249807,47.273,-6.697,-11.535
210,1437067249828,47.273,-6.129,-11.535
211,1437067249847,47.273,-6.129,-11.535
212,1437067249867,47.273,-5.732,-11.19
213,1437067249896,47.273,-5.413,-11.19
214,1437067249907,47.273,-5.413,-11.19
215,1437067249927,47.592,-5.413,-10.768
216,1437067249947,47.592,-5.886,-10.768
217,1437067249967,47.592,-5.886,-10.403
218,1437067249988,47.592,-5.886,-10.403
219,1437067250018,47.592,-5.886,-10.076
220,1437067250027,47.592,-5.886,-10.076
221,1437067250046,47.592,-5.886,-10.076
222,1437067250068,47.592,-5.886,-10.076
223,1437067250090,47.592,-5.453,-9.715
224,1437067250108,47.926,-5.453,-9.715
225,1437067250128,47.926,-5.453,-9.405
226,1437067250150,47.926,-5.09,-9.405
227,1437067250168,47.926,-5.09,-9.405
228,1437067250190,47.926,-5.09,-9.405
229,1437067250226,47.926,-5.09,-9.405
230,1437067250227,47.926,-5.09,-9.405
231,1437067250247,47.926,-5.09,-10.636
232,1437067250269,47.926,-5.09,-11.164
233,1437067250289,47.926,-5.09,-11.164
234,1437067250309,47.926,-5.09,-11.766
235,1437067250330,47.926,-5.09,-12.077
236,1437067250349,47.613,-5.09,-12.484
237,1437067250369,47.613,-5.09,-12.484
238,1437067250387,47.613,-5.09,-12.484
239,1437067250409,47.613,-5.09,-12.149
240,1437067250433,47.613,-5.09,-11.331
241,1437067250461,47.613,-5.09,-10.926
242,1437067250471,47.613,-5.432,-10.926
243,1437067250487,47.613,-5.432,-11.361
244,1437067250507,47.239,-7.646,-11.743
245,1437067250529,47.239,-9.08,-11.743
246,1437067250549,47.239,-9.771,-12.091
247,1437067250567,47.239,-9.771,-12.091
248,1437067250588,47.239,-9.771,-12.091
249,1437067250609,47.239,-9.771,-12.091
250,1437067250629,47.239,-9.771,-12.091
251,1437067250651,46.939,-10.272,-12.091
252,1437067250667,46.939,-10.272,-12.091
253,1437067250691,46.939,-10.694,-12.091
254,1437067250711,46.939,-11.048,-12.477
255,1437067250730,46.939,-11.48,-13.269
256,1437067250751,46.577,-11.48,-13.909
257,1437067250771,46.577,-11.48,-14.537
258,1437067250791,46.577,-11.48,-14.537
259,1437067250809,46.577,-11.48,-13.771
260,1437067250830,46.243,-11.48,-13.771
261,1437067250851,46.243,-11.178,-13.771
262,1437067250871,46.243,-11.178,-14.161
263,1437067250891,46.243,-11.537,-14.161
264,1437067250912,45.899,-11.537,-14.161
265,1437067250931,45.899,-11.537,-14.924
266,1437067250949,45.899,-11.537,-13.827
267,1437067250969,45.899,-10.247,-13.827
268,1437067250990,45.899,-7.553,-13.827
269,1437067251009,45.899,-6.677,-13.827
270,1437067251032,45.899,-6.359,-14.317
271,1437067251050,45.899,-6.359,-14.317
272,1437067251071,45.899,-7.093,-14.317
273,1437067251149,45.899,-7.093,-14.317
274,1437067251150,45.899,-7.72,-14.317
275,1437067251151,45.899,-8.198,-14.317
276,1437067251152,45.899,-8.198,-14.317
277,1437067251168,45.899,-8.198,-14.317
278,1437067251205,45.899,-8.198,-13.949
279,1437067251301,45.899,-8.198,-13.949
280,1437067251302,45.899,-8.198,-13.949
281,1437067251303,45.899,-8.198,-13.949
282,1437067251304,45.899,-7.548,-14.607
283,1437067251305,45.899,-7.548,-15.82
284,1437067251315,45.899,-6.967,-15.82
285,1437067251405,45.899,-6.967,-16.493
286,1437067251411,45.899,-6.967,-17.065
287,1437067251425,45.899,-6.486,-16.209
288,1437067251426,45.899,-6.486,-16.749
289,1437067251427,45.559,-6.486,-16.749
290,1437067251434,45.559,-6.486,-16.749
291,1437067251551,45.559,-6.486,-15.75
292,1437067251552,45.559,-6.864,-14.785
293,1437067251553,45.559,-6.864,-13.563
294,1437067251554,45.559,-6.864,-12.306
295,1437067251555,45.559,-7.328,-13.311
296,1437067251556,45.559,-7.328,-13.311
297,1437067251569,45.559,-7.328,-14.204
298,1437067251588,45.559,-7.635,-14.204
299,1437067251608,45.559,-7.635,-15.068
300,1437067251628,45.559,-7.635,-14.688
301,1437067251648,45.559,-7.635,-14.688
302,1437067251668,45.559,-7.635,-14.688
303,1437067251688,45.559,-8.015,-15.046
304,1437067251708,45.559,-8.015,-15.046
305,1437067251728,45.559,-8.688,-15.792
306,1437067251748,45.559,-9.178,-16.439
307,1437067251768,45.559,-9.178,-16.439
308,1437067251788,45.559,-9.178,-17.593
309,1437067251808,45.559,-9.178,-17.593
310,1437067251829,45.172,-9.178,-18.284
311,1437067251848,45.172,-9.178,-18.284
312,1437067251868,45.172,-9.506,-17.655
313,1437067251888,44.665,-9.506,-17.655
314,1437067251908,44.665,-9.506,-18.043
315,1437067251928,44.665,-9.823,-18.043
316,1437067251948,44.299,-9.823,-17.239
317,1437067251968,44.299,-9.823,-16.496
318,1437067251988,44.299,-9.823,-16.178
319,1437067252016,44.299,-8.752,-16.178
320,1437067252029,44.299,-7.441,-15.623
321,1437067252048,44.299,-6.642,-15.623
322,1437067252068,44.299,-6.642,-15.623
323,1437067252088,44.299,-7.38,-15.623
324,1437067252109,44.299,-8.024,-16.084
325,1437067252128,44.299,-8.822,-17.019
326,1437067252148,44.299,-9.356,-17.019
327,1437067252169,44.299,-9.356,-17.019
328,1437067252188,44.299,-9.356,-17.019
329,1437067252208,44.299,-9.729,-17.019
330,1437067252230,44.299,-9.225,-17.019
331,1437067252248,44.299,-9.225,-16.697
332,1437067252268,44.299,-9.225,-16.697
333,1437067252288,44.299,-9.225,-16.697
334,1437067252311,44.299,-8.665,-16.998
335,1437067252329,44.299,-8.349,-16.998
336,1437067252349,44.299,-7.728,-16.998
337,1437067252369,44.299,-7.295,-17.854
338,1437067252389,44.299,-6.901,-17.854
339,1437067252409,44.299,-6.901,-17.854
340,1437067252429,44.299,-6.901,-18.222
341,1437067252450,44.299,-7.518,-17.575
342,1437067252469,44.299,-7.518,-16.761
343,1437067252489,44.299,-8.193,-16.761
344,1437067252509,44.299,-8.708,-15.666
345,1437067252529,44.299,-9.506,-15.666
346,1437067252549,44.299,-9.924,-15.666
347,1437067252569,44.299,-9.924,-15.666
348,1437067252589,44.299,-9.924,-15.666
349,1437067252609,44.299,-9.924,-16.229
350,1437067252629,44.299,-9.317,-16.229
351,1437067252650,44.299,-9.317,-16.621
352,1437067252669,44.299,-9.317,-16.621
353,1437067252691,44.299,-9.317,-16.621
354,1437067252709,44.299,-9.945,-17.127
355,1437067252729,44.299,-10.476,-17.127
356,1437067252749,44.299,-10.476,-17.526
357,1437067252769,44.299,-11.059,-17.526
358,1437067252789,44.299,-11.059,-17.526
359,1437067252809,44.299,-11.059,-17.999
360,1437067252829,44.299,-11.059,-17.999
361,1437067252849,43.986,-11.059,-17.475
362,1437067252869,43.986,-11.059,-17.782
363,1437067252889,43.67,-11.059,-17.782
364,1437067252909,43.67,-11.059,-17.782
365,1437067252931,43.67,-11.059,-17.782
366,1437067252954,43.309,-11.059,-17.782
367,1437067252973,43.309,-11.059,-17.782
368,1437067252991,43.309,-11.059,-17.782
369,1437067253009,43.309,-9.182,-16.961
370,1437067253029,43.309,-8.108,-16.961
371,1437067253050,43.309,-7.672,-16.961
372,1437067253069,43.309,-8.085,-16.961
373,1437067253094,43.309,-8.563,-17.483
374,1437067253114,43.309,-9.164,-17.906
375,1437067253134,43.309,-9.164,-17.906
376,1437067253150,43.309,-10.191,-18.629
377,1437067253172,43.309,-10.191,-18.629
378,1437067253202,43.309,-10.923,-18.629
379,1437067253210,43.309,-10.923,-18.629
380,1437067253232,43.309,-10.923,-18.205
381,1437067253251,43.309,-10.923,-18.667
382,1437067253270,43.309,-10.923,-18.667
383,1437067253292,43.309,-10.43,-19.21
384,1437067253311,43.309,-9.729,-20.018
385,1437067253331,43.309,-9.243,-20.018
386,1437067253351,43.309,-8.668,-20.942
387,1437067253372,43.309,-8.668,-21.376
388,1437067253392,43.309,-8.668,-21.376
389,1437067253412,42.929,-8.668,-20.15
390,1437067253431,42.929,-9.004,-19.581
391,1437067253454,42.929,-9.588,-18.511
392,1437067253474,42.929,-9.588,-17.597
393,1437067253493,42.929,-10.032,-16.97
394,1437067253513,42.929,-10.348,-16.398
395,1437067253532,42.929,-10.67,-16.398
396,1437067253551,42.929,-10.67,-17.274
397,1437067253570,42.929,-10.67,-18.525
398,1437067253590,42.929,-10.67,-19.223
399,1437067253611,42.929,-10.67,-19.696
400,1437067253632,42.929,-10.356,-20.108
401,1437067253652,42.929,-10.356,-19.657
402,1437067253672,42.929,-10.356,-20.571
403,1437067253693,42.929,-10.356,-20.571
404,1437067253713,42.929,-10.888,-20.571
405,1437067253733,42.929,-11.204,-20.571
406,1437067253753,42.929,-11.521,-20.24
407,1437067253772,42.929,-11.521,-20.24
408,1437067253793,42.929,-11.521,-20.24
409,1437067253816,42.929,-11.521,-18.927
410,1437067253835,42.929,-11.521,-18.927
411,1437067253853,42.929,-11.862,-18.003
412,1437067253878,42.929,-11.862,-18.353
413,1437067253952,42.929,-11.862,-18.023
414,1437067253953,42.929,-11.862,-18.463
415,1437067253954,42.929,-11.862,-18.998
416,1437067253955,42.929,-11.862,-18.998
417,1437067253971,42.929,-10.629,-18.998
418,1437067253996,42.929,-10.157,-18.998
419,1437067254012,42.929,-9.216,-18.998
420,1437067254032,42.929,-8.627,-18.998
421,1437067254053,42.929,-8.122,-18.998
422,1437067254071,42.929,-8.122,-18.614
423,1437067254091,42.929,-8.122,-18.614
424,1437067254111,43.258,-9.515,-18.614
425,1437067254134,43.258,-10.438,-18.614
426,1437067254153,43.258,-11.396,-18.614
427,1437067254173,43.258,-12.403,-18.614
428,1437067254194,43.258,-12.728,-18.614
429,1437067254213,43.258,-12.728,-18.614
430,1437067254234,43.258,-12.728,-18.614
431,1437067254254,43.258,-12.425,-18.614
432,1437067254273,43.258,-11.817,-18.614
433,1437067254292,43.258,-11.07,-18.614
434,1437067254311,43.258,-10.095,-18.614
435,1437067254331,43.603,-9.487,-18.614
436,1437067254352,43.603,-9.487,-18.614
437,1437067254373,43.603,-9.129,-17.643
438,1437067254393,43.603,-9.58,-17.643
439,1437067254412,43.603,-9.916,-17.643
440,1437067254433,43.948,-9.916,-17.643
441,1437067254454,43.948,-9.916,-17.643
442,1437067254474,43.948,-10.675,-17.643
443,1437067254496,43.948,-11.299,-17.643
444,1437067254514,43.948,-11.863,-17.643
445,1437067254533,43.948,-12.269,-17.643
446,1437067254552,43.948,-12.269,-17.643
447,1437067254572,43.948,-12.269,-17.643
448,1437067254601,43.948,-12.269,-17.643
449,1437067254656,44.322,-11.764,-17.237
450,1437067254657,44.322,-11.288,-17.237
451,1437067254658,44.322,-11.288,-17.237
452,1437067254683,44.322,-10.485,-17.237
453,1437067254693,44.322,-10.067,-17.237
454,1437067254712,44.322,-9.693,-17.237
455,1437067254734,44.322,-9.098,-17.237
456,1437067254751,44.322,-9.098,-17.237
457,1437067254772,44.322,-9.098,-17.634
458,1437067254793,44.322,-9.59,-17.634
459,1437067254811,44.322,-9.59,-17.634
460,1437067254832,44.322,-9.991,-17.634
461,1437067254852,44.322,-10.536,-17.634
462,1437067254875,44.322,-10.836,-17.634
463,1437067254894,44.322,-10.836,-18.02
464,1437067254913,44.322,-11.253,-18.02
465,1437067254933,44.322,-10.731,-18.02
466,1437067254952,44.322,-10.395,-18.02
467,1437067254972,44.322,-9.941,-18.327
468,1437067254992,44.322,-9.561,-18.327
469,1437067255012,44.322,-9.561,-18.327
470,1437067255034,44.322,-9.561,-18.327
471,1437067255054,44.659,-9.561,-18.327
472,1437067255075,44.659,-9.561,-18.327
473,1437067255093,44.659,-9.561,-18.327
474,1437067255113,44.659,-9.561,-18.327
475,1437067255135,44.659,-9.561,-18.327
476,1437067255155,44.659,-9.561,-18.327
477,1437067255175,44.659,-9.867,-18.327
478,1437067255195,44.659,-9.867,-18.327
479,1437067255224,44.659,-10.169,-17.919
480,1437067255232,44.659,-11.253,-17.919
481,1437067255252,44.659,-12.355,-17.919
482,1437067255272,44.659,-13.551,-17.919
483,1437067255294,44.659,-14.288,-17.919
484,1437067255346,44.659,-14.836,-17.919
485,1437067255347,44.659,-14.366,-17.593
486,1437067255487,44.659,-14.366,-17.593
487,1437067255488,44.659,-13.392,-17.593
488,1437067255489,44.659,-12.869,-17.593
489,1437067255490,44.659,-12.869,-17.593
490,1437067255491,44.659,-12.367,-17.257
491,1437067255492,44.659,-12.008,-17.257
492,1437067255493,44.659,-12.008,-17.257
493,1437067255497,44.659,-12.008,-17.257
494,1437067255512,44.659,-12.309,-17.257
495,1437067255537,44.659,-12.614,-17.257
496,1437067255552,44.659,-12.614,-17.257
497,1437067255574,44.659,-13.348,-17.257
498,1437067255593,44.659,-13.706,-17.257
499,1437067255613,44.659,-13.706,-17.257
