id,attr_time,attr_db
1,1436621318460,59.1370693233516
2,1436621318937,59.2434647838775
3,1436621320506,62.4677493006589
4,1436621320959,45.3033337860813
5,1436621321435,39.6811870392311
6,1436621321902,40.539601521256
7,1436621322375,43.0579770739723
8,1436621322879,39.7139617140571
9,1436621323379,40.0653102318367
10,1436621323846,38.4355889516524
11,1436621324274,52.852891907127
12,1436621324681,40.9714024015908
13,1436621325151,37.4160621980328
14,1436621325684,53.9024453312932
15,1436621326237,38.982308872772
16,1436621326723,56.4505576263279
17,1436621327206,68.0746560778699
18,1436621327696,72.7641242439658
19,1436621328210,68.4682601866565
20,1436621328664,73.2115426636215
21,1436621329105,67.8151881093497
22,1436621329580,67.0403339573025
23,1436621330090,72.7409939021958
24,1436621330583,68.8820671683719
25,1436621331068,72.8663313677866
26,1436621331598,75.1861571433839
27,1436621332092,67.7075679403252
28,1436621332581,72.0356936803627
29,1436621333058,71.7760348160666
30,1436621333543,71.5374887996041
31,1436621334024,69.245207236929
32,1436621334467,68.046345901256
33,1436621334861,71.8435427666736
34,1436621335295,69.5401521218363
35,1436621335766,58.7406557370052
36,1436621336375,70.4890621198303
37,1436621336795,68.784737262161
38,1436621337194,71.9242682046006
39,1436621337674,71.2129710005674
40,1436621338139,60.8070129404266
41,1436621338619,71.0718125427407
42,1436621339109,67.7541024187477
43,1436621339606,63.1699184903863
44,1436621340067,75.9037421282558
45,1436621340557,64.2234382501428
46,1436621341038,70.8829176033124
47,1436621341551,70.9377831027635
48,1436621341995,64.2872523374273
49,1436621342412,69.3189285166008
50,1436621342855,65.9567258501876
51,1436621343326,71.0818963520991
52,1436621343799,70.3981377854314
53,1436621344282,65.454121777208
54,1436621344716,68.9180465382113
55,1436621345154,66.5234253582623
56,1436621345669,69.9609531985427
57,1436621346162,74.8997614575172
58,1436621346670,65.8577146215471
59,1436621347172,69.6830729366065
60,1436621347659,68.7459019268031
61,1436621348146,66.1159214832685
62,1436621348586,71.4984962522531
63,1436621349055,66.7112522915456
64,1436621349543,70.5651904395564
65,1436621350017,76.1091514156131
66,1436621350497,64.1321452538632
67,1436621351012,71.8775133494487
68,1436621351438,66.1678666619617
69,1436621351887,64.3601398975916
70,1436621352304,76.6612911109288
71,1436621352734,68.7572459394974
72,1436621353192,68.1418006723777
73,1436621353665,65.480562489695
74,1436621354157,63.2373847014669
75,1436621354592,76.6506130215567
76,1436621354996,65.3643619467967
77,1436621355486,68.7881510170357
78,1436621355971,70.450880328662
79,1436621356492,65.1093544754372
80,1436621356976,70.1662510496449
81,1436621357471,67.3595503416205
82,1436621357939,65.599827262125
83,1436621358352,76.0916095408606
84,1436621358698,63.6691775747647
85,1436621359154,75.2139884052187
86,1436621359615,67.54610506053
87,1436621360089,71.3357977715458
88,1436621360569,68.5121353602128
89,1436621361085,65.1059583752071
90,1436621361552,73.4215704724244
91,1436621361991,66.2185129403786
92,1436621362413,69.7854459834699
93,1436621362778,69.1226070711798
94,1436621363240,66.7925950091564
95,1436621363722,72.2018185071242
96,1436621364204,67.9764765658299
97,1436621364665,72.4640886685186
98,1436621365097,69.6505308812971
99,1436621365537,63.0257876850545
100,1436621365986,74.2009962033366
101,1436621366582,70.9192341459714
102,1436621367073,66.739278295655
103,1436621367524,70.3684932112977
104,1436621368003,65.0203547742885
105,1436621368508,72.6384354210628
106,1436621368967,74.0218896136287
107,1436621369437,66.6279329814177
108,1436621369910,68.7860439344929
109,1436621370340,67.3765159351945
110,1436621370786,71.4399899253282
111,1436621371253,73.236067307694
112,1436621371728,66.2004329073572
113,1436621372217,71.4439485883955
114,1436621372688,67.2471774438023
115,1436621373183,63.3014529471256
116,1436621373679,68.6384650388785
117,1436621374157,66.1134294003145
118,1436621374588,71.1890225652282
119,1436621374986,69.638992764736
120,1436621375434,68.1855673442743
121,1436621375915,75.7225767977437
122,1436621376429,67.7423896142049
123,1436621376899,69.3527819221258
124,1436621377403,71.0863072175395
125,1436621377866,65.7755903084913
126,1436621378366,70.6696867099594
127,1436621378857,69.6641673872076
128,1436621379309,64.6091976580147
129,1436621379664,74.3776092332083
130,1436621380119,63.780234345749
131,1436621380596,68.7288181942676
132,1436621381069,65.2057893255985
133,1436621381629,62.9624031792688
134,1436621382113,70.1935508394997
135,1436621382561,64.3248098144622
136,1436621382996,68.2391365255753
137,1436621383437,69.5283089297907
138,1436621383892,70.6244092195893
139,1436621384380,74.6692445527003
140,1436621384906,68.5791059869811
141,1436621385353,72.5064135060505
142,1436621385790,67.824287541806
143,1436621386330,58.7184036967877
144,1436621386788,68.3926639522319
145,1436621387253,69.9692754750993
146,1436621387756,65.5009499656669
147,1436621388257,72.7383092793922
148,1436621388741,67.4299281718979
149,1436621389238,73.6328915034763
150,1436621389736,74.5635180791568
151,1436621390226,69.3283448869476
152,1436621390656,67.6742679071134
153,1436621391126,67.149274939344
154,1436621391588,71.0131903329226
155,1436621392066,74.8493656667639
156,1436621392547,66.2367353897314
157,1436621393029,69.8889957310501
158,1436621393520,71.6370170132333
159,1436621394007,64.7747134436268
160,1436621394503,69.0068228292586
161,1436621395005,68.1673184724285
162,1436621395496,65.5588575197095
163,1436621395930,76.7645910022877
164,1436621396379,66.1148199891035
165,1436621396913,69.4397093550724
166,1436621397385,72.2014568499386
167,1436621397880,65.0920040301431
168,1436621398349,70.0430996206081
169,1436621398806,65.6323127469781
170,1436621399311,72.5023503185379
171,1436621399752,68.885019042406
172,1436621400219,65.4139464315032
173,1436621400738,68.0811837535425
174,1436621401125,69.1843563025406
175,1436621401559,70.982418131595
176,1436621402026,65.9078629068675
177,1436621402488,70.4642881926923
178,1436621402909,74.6701248312425
179,1436621403322,59.4244633561975
180,1436621403800,72.1443174662412
181,1436621404285,69.2639439187525
182,1436621404733,70.310991604492
183,1436621405177,69.988228242384
184,1436621405645,68.9772575685248
185,1436621406058,73.8806331906989
186,1436621406482,64.0133035795366
187,1436621406957,68.946933497839
188,1436621407434,69.5515816146676
189,1436621407935,72.2684218593653
190,1436621408411,72.7977727487186
191,1436621408887,63.6625324245061
192,1436621409358,71.6992933352724
193,1436621409852,71.9210789901073
194,1436621410366,66.3923830593061
195,1436621410858,72.9185243750225
196,1436621411338,70.1304300876782
197,1436621411818,70.0539845004109
198,1436621412253,73.0973482531122
199,1436621412729,67.6356251134316
200,1436621413217,70.3455159372741
201,1436621413700,64.4982555439595
202,1436621414203,63.8062287039976
203,1436621414618,74.5184648321146
204,1436621415058,66.0871138804085
205,1436621415593,68.106920430846
206,1436621416057,71.7383497432096
207,1436621416506,68.0250785959721
208,1436621416936,76.3757372041552
209,1436621417398,66.9068420618348
210,1436621417865,69.5367002258337
211,1436621418325,64.4566689339264
212,1436621418835,69.0330687598645
213,1436621419306,74.1359258783959
214,1436621419792,61.4652323065695
215,1436621420284,68.5993543783582
216,1436621420668,71.0622150606706
217,1436621421082,69.5632996338647
218,1436621421548,71.9384166048153
219,1436621422070,64.0567419091098
220,1436621422558,69.7418869108597
221,1436621422999,70.6836720657961
222,1436621423456,68.0630798703276
223,1436621423936,75.4795070300415
224,1436621424417,66.6105465935816
225,1436621424911,67.859518326665
226,1436621425390,72.3650271575325
227,1436621425848,65.2510233214545
228,1436621426226,68.8754434353433
229,1436621426619,66.0304688209312
230,1436621427082,68.4455973219579
231,1436621427536,68.8642106700918
232,1436621428000,72.1343032306034
233,1436621428482,73.0984019008787
234,1436621428954,67.4422356448329
235,1436621429425,66.9760934918816
236,1436621429896,69.7780507649838
237,1436621430442,66.2727981203441
238,1436621430959,65.1557325997977
239,1436621431464,66.7983728315159
240,1436621431927,71.6786405805626
241,1436621432391,73.9452577661065
242,1436621432857,62.8610925957296
243,1436621433325,68.5943246473799
244,1436621433746,64.5253309652787
245,1436621434214,72.2305881725217
246,1436621434707,75.0838071568618
247,1436621435208,65.5891803160081
248,1436621435754,70.2526031312162
249,1436621436232,74.1301957418012
250,1436621436664,63.5913349805282
251,1436621437082,55.2229053116228
252,1436621437576,55.2819080186719
253,1436621438036,51.541852458332
254,1436621438505,15.0451601505573
255,1436621438942,51.3896358365838
256,1436621439367,22.9175479552383
257,1436621439794,39.7799926940101
258,1436621440256,17.1486657960801
259,1436621440753,33.5500243370007
260,1436621441209,16.8468428245553
261,1436621441749,63.036930002144
262,1436621442228,37.2127402696705
263,1436621442727,32.0650912374264
264,1436621443216,29.1125128067524
265,1436621443687,22.2755434375848
266,1436621444157,24.6643519602673
267,1436621444619,33.5195917224882
268,1436621445117,33.2433587355882
269,1436621445624,22.0391461211884
270,1436621446181,15.549579778638
271,1436621446668,21.3869687379739
272,1436621447153,29.0528126720273
273,1436621447614,25.7448266930654
274,1436621448012,44.7773080553128
275,1436621448436,50.8562860213059
276,1436621448916,56.9074936050136
277,1436621449440,39.6187900346726
278,1436621449914,22.4658733166949
279,1436621450393,16.9269099729041
280,1436621450896,26.0223129888855
281,1436621451387,14.9308223098082
282,1436621451852,14.324826212234
283,1436621452299,21.8409960969647
284,1436621452738,15.8358760022849
285,1436621453245,27.3003124184721
286,1436621453728,22.3158595133724
287,1436621454219,20.3485215002336
288,1436621454680,37.8628940927212
289,1436621455082,23.6543853518646
290,1436621455547,38.9317207548822
291,1436621456028,33.7143083546286
292,1436621456530,37.0583033942065
293,1436621457009,16.6774013129656
294,1436621457482,41.1516042975548
295,1436621457955,40.263045646773
296,1436621458420,25.540070194677
297,1436621458885,44.668971202864
298,1436621459329,29.4312487701247
299,1436621459748,25.5027287640815
300,1436621460232,24.068741849846
301,1436621460726,30.9334235946277
302,1436621461229,26.021092110069
303,1436621461728,45.7770652887147
304,1436621462204,35.5136296506312
305,1436621462695,20.2807290059254
306,1436621463116,25.0753464161888
307,1436621463484,23.0596113188393
308,1436621463966,16.177995507472
309,1436621464442,17.526793649079
310,1436621464916,19.811830326477
311,1436621465398,18.3270268093695
312,1436621465898,20.3157474639722
313,1436621466447,20.6721072760557
314,1436621466937,26.3611694629419
315,1436621467422,13.4227692058652
316,1436621467906,17.2692013749151
317,1436621468379,34.4290542375395
318,1436621468846,19.6509531200848
319,1436621469303,31.7966767813493
320,1436621469739,28.5067055147493
321,1436621470173,34.6730735366329
322,1436621470622,23.2856636733261
323,1436621471172,30.9409592419839
324,1436621471663,28.0502415328695
325,1436621472166,31.4710512747133
326,1436621472650,15.5023187484412
327,1436621473165,16.0201140313066
328,1436621473629,16.0345230346894
329,1436621474171,13.3219453272346
330,1436621474532,14.3935766870304
331,1436621474960,15.5064999631695
332,1436621475409,21.4479275842186
333,1436621475906,14.3612712801671
334,1436621476452,15.7235397481894
335,1436621476918,31.0056676437045
336,1436621477360,23.8206562472642
337,1436621477824,34.8216130694765
338,1436621478317,15.6804184786442
339,1436621478799,34.2618788761625
340,1436621479279,37.3288881666422
341,1436621479784,14.9662134046101
342,1436621480284,18.8065859572182
343,1436621480786,18.6352657409531
344,1436621481244,16.2600007804779
345,1436621481626,17.3400417719531
346,1436621482019,18.3422879276792
347,1436621482495,23.0561092327009
348,1436621482969,18.0717598802247
349,1436621483436,27.9825691844315
350,1436621483906,19.343931087121
351,1436621484396,20.3429340783206
352,1436621484867,20.1196163846587
353,1436621485338,20.4560166166701
354,1436621485804,19.4588116514597
355,1436621486307,21.134396006211
356,1436621486772,25.2183690035965
357,1436621487205,28.8552139029213
358,1436621487675,26.6284198356756
359,1436621488154,37.2514937390993
360,1436621488655,28.8745818388515
361,1436621489135,26.3271894887193
362,1436621489615,35.6015706756624
363,1436621490123,31.6546735198707
364,1436621490548,26.5815938880329
365,1436621490911,27.2591446045456
366,1436621491345,27.4367499544023
367,1436621491796,27.2690169953063
368,1436621492306,27.9595371027749
369,1436621492828,34.416675978446
370,1436621493286,42.3009546343435
371,1436621493758,37.1598843069684
372,1436621494288,40.2394479927449
373,1436621494777,34.8466617614105
374,1436621495262,29.3745617825233
375,1436621495758,40.2926938861381
376,1436621496279,35.2355380448176
377,1436621496755,31.5157468711476
378,1436621497229,35.9826498485626
379,1436621497771,35.5994416116814
380,1436621498240,33.8138026339588
381,1436621498733,33.7072130789309
382,1436621499229,35.3790918860995
383,1436621499735,37.717296625957
384,1436621500214,31.8241433523126
385,1436621500700,34.7727846602104
386,1436621501187,36.8895562817183
387,1436621501728,47.5386043999264
388,1436621502213,35.1734866681022
389,1436621502667,42.5367108998782
390,1436621503100,30.8294400627959
391,1436621503536,45.5110968397791
392,1436621504013,44.7531821647253
393,1436621504497,27.8987591552464
394,1436621504956,39.9174154544047
395,1436621505420,44.7794975877887
396,1436621507096,37.1143872455555
397,1436621507537,24.3807385430063
398,1436621508001,30.3046249068604
399,1436621508502,26.0802448412679
400,1436621508988,28.2631786377363
401,1436621509505,21.2101508768589
402,1436621510049,21.2192624338993
403,1436621510583,23.8088025394429
404,1436621511046,22.8462534339471
405,1436621511494,42.0888780190902
406,1436621511935,20.8470906791134
407,1436621512392,23.0364330348009
408,1436621512856,43.408201710706
409,1436621513362,56.2856761612748
410,1436621513847,29.5725834445257
411,1436621514335,21.7959793010921
412,1436621514791,37.4137546533042
413,1436621515210,36.3840887372677
414,1436621515700,29.904053756422
415,1436621517354,33.6157552873778
416,1436621517839,42.4349624874093
417,1436621518321,34.5529330267755
418,1436621518768,41.9366478054917
419,1436621519214,45.7468275362263
420,1436621519689,50.3549567316623
421,1436621520191,51.2850490530045
422,1436621520677,24.5977735585121
423,1436621521157,31.8378274467302
424,1436621521676,24.0160849777633
425,1436621522163,19.6288213232212
426,1436621522672,31.3719588677098
427,1436621523140,29.0768886450532
428,1436621523593,20.6983254403944
429,1436621523989,38.4648615319485
430,1436621524426,45.4405287808222
431,1436621524938,43.8911908716931
432,1436621525406,27.8431921934683
433,1436621525804,21.2130201078974
434,1436621526201,18.5110773270355
435,1436621526671,27.3283338342678
436,1436621527196,29.2771955240384
437,1436621527685,34.0811642517286
438,1436621528179,21.6300773204745
439,1436621528664,21.5950299710892
440,1436621529160,24.4426932042383
441,1436621529653,41.1061885312503
442,1436621530155,46.3981796065218
443,1436621530621,48.085953057273
444,1436621532289,42.8271991338684
445,1436621532720,31.692202716354
446,1436621533198,27.2596134750195
447,1436621533671,25.049367207473
448,1436621534142,24.6322354450708
449,1436621534638,20.4774602595212
450,1436621535132,36.7364060948162
451,1436621535565,42.7904372793626
452,1436621535968,30.0341594125595
453,1436621536489,33.6921408347173
454,1436621536970,31.9399324213338
455,1436621537437,39.6087122575789
456,1436621537928,32.1967980633929
457,1436621538380,22.4318353261738
458,1436621538884,41.9807280221816
459,1436621539296,38.8625661000837
460,1436621540658,23.7775171125137
461,1436621541081,35.6761423607272
462,1436621541585,43.2210899412326
463,1436621542093,40.8537604601891
464,1436621542586,48.8485142767513
465,1436621543066,35.6263234985913
466,1436621543563,37.7721147322611
467,1436621544017,36.0213479094218
468,1436621544446,21.6932814426479
469,1436621544903,26.1887974618543
470,1436621545395,31.4563807591156
471,1436621545952,41.3893742876724
472,1436621546444,20.6741269828748
473,1436621546923,25.5294977187228
474,1436621547467,35.4403429014155
475,1436621547888,34.8466127715867
476,1436621548325,23.0695926586678
477,1436621548785,25.6537394762723
478,1436621549267,23.4563122866053
479,1436621549746,24.8486889957754
480,1436621550226,23.8120063585256
481,1436621550695,26.974323024723
482,1436621551173,20.3237252892604
483,1436621551581,16.1719606561853
484,1436621552067,26.3472902705122
485,1436621552529,22.7099226928728
486,1436621553038,18.3063161341396
487,1436621553543,16.0643862931245
488,1436621554037,20.0760995587782
489,1436621554537,19.8211554149918
490,1436621555047,17.2912848061114
491,1436621555611,17.3974012900633
492,1436621556078,18.0229476531646
493,1436621556544,20.6721316806752
494,1436621556931,17.7615982686794
495,1436621557307,18.1338387327804
496,1436621557769,17.907413373478
497,1436621558251,21.5116377956327
498,1436621558727,15.3274557717307
499,1436621559214,35.3655673038212
500,1436621559691,17.4186921729453
501,1436621560177,17.7319577780937
502,1436621560664,18.2136520030491
503,1436621561185,17.223649245955
504,1436621561692,19.7509897616499
505,1436621562206,18.7554513299793
506,1436621562692,24.3496946033678
507,1436621563187,20.7436133291848
508,1436621563683,19.4298607026686
509,1436621564184,19.5414615733759
510,1436621564579,18.7285791788146
511,1436621565025,32.0794142982344
512,1436621565506,37.1074028060345
513,1436621566065,40.5507442225797
514,1436621566539,23.2358566029051
515,1436621567017,36.8856613798414
516,1436621567516,24.5305595042962
517,1436621567996,37.9581163702982
518,1436621568487,37.4121709285272
519,1436621568881,31.7301197645372
520,1436621569299,47.9873436370182
521,1436621569761,42.0953631201704
522,1436621570242,36.836040866664
523,1436621571151,25.8815715035424
524,1436621571507,21.3185705028876
525,1436621571972,21.7166455460627
526,1436621572473,23.4664125825205
527,1436621572974,26.7708830471172
528,1436621573460,20.9581108926658
529,1436621573915,22.3776089315422
530,1436621574326,34.5954383790668
531,1436621574769,29.4141595495081
532,1436621575213,29.9895857653133
533,1436621575689,31.0218316991991
534,1436621576265,26.8463466042438
535,1436621576764,21.8401528321103
536,1436621577267,26.0637623588252
537,1436621577757,32.0419486458946
538,1436621578230,39.9290713594451
539,1436621578663,42.8952350261301
540,1436621579042,37.6834430166328
541,1436621579497,42.7422038505851
542,1436621579963,17.9077041778251
543,1436621580457,22.7401304945395
544,1436621580961,18.5623367302956
545,1436621581387,28.4578677694412
546,1436621581848,23.9717192697773
547,1436621582323,19.6046534013916
548,1436621582802,21.6108049070102
549,1436621583262,22.3431772824739
550,1436621583789,20.7577538211624
551,1436621584213,16.9872283964616
552,1436621584549,19.5819500659293
553,1436621584981,19.4579287332989
554,1436621585448,44.441351455265
555,1436621585976,30.2658819201096
556,1436621586449,53.5753722331611
557,1436621586948,53.1561052934737
558,1436621587456,47.4733837523893
559,1436621587938,50.1615492342037
560,1436621588414,30.270922397246
561,1436621588891,43.1712351111694
562,1436621589347,41.9202806788326
563,1436621589765,34.9357763441284
564,1436621590164,25.3785398957452
565,1436621590639,44.7797827439974
566,1436621591130,52.5499325410381
567,1436621591608,29.6463060187025
568,1436621592119,35.1291714354925
569,1436621592584,31.3467356945745
570,1436621593055,24.1087291816621
571,1436621593512,38.7892406361184
572,1436621593976,39.0301108560264
573,1436621594463,48.0442615524307
574,1436621594931,38.7676125536754
575,1436621595337,37.6299741838108
