id,attr_time,attr_db
1,1436621318026,59.1395938473941
2,1436621318566,58.3590295120361
3,1436621319088,59.8479331034618
4,1436621319607,46.2829257988824
5,1436621320126,43.1601248407091
6,1436621320666,46.028887029267
7,1436621321206,41.9551433555217
8,1436621321725,40.9921017465693
9,1436621322245,58.7353989117737
10,1436621322785,40.9907462865705
11,1436621323327,38.3410439715167
12,1436621323839,36.6744967305306
13,1436621324379,38.0362405072743
14,1436621324919,33.9824319223339
15,1436621325467,42.9564261212184
16,1436621325986,42.5175271372504
17,1436621326506,51.2845059141676
18,1436621327049,40.8332290972508
19,1436621327568,56.4368283579381
20,1436621328108,43.8225490141698
21,1436621328649,41.3337166527441
22,1436621329197,49.184342328186
23,1436621329737,47.7677618301306
24,1436621330275,60.7544429063942
25,1436621330799,45.0893924439961
26,1436621331339,44.8390500363851
27,1436621331885,53.9369137391651
28,1436621332403,44.1340324668143
29,1436621332948,61.5150046141642
30,1436621333488,48.1404505563073
31,1436621334027,39.5630050936199
32,1436621334545,64.7410142412708
33,1436621335068,49.3124389820327
34,1436621335607,44.2942092129859
35,1436621336147,58.7665449384476
36,1436621336681,40.9204926838928
37,1436621337221,66.1652578175316
38,1436621337740,43.9191950527119
39,1436621338286,41.2886288938809
40,1436621338828,45.4013972492027
41,1436621339365,43.8846883044785
42,1436621339886,63.1145131542278
43,1436621341135,52.0388388864164
44,1436621341676,44.8844366451575
45,1436621342200,65.8352882890452
46,1436621342741,54.3783700573998
47,1436621343281,48.1184858061561
48,1436621343826,57.733129357662
49,1436621344369,53.2175414804226
50,1436621344907,64.9688661316021
51,1436621345427,44.7311177244186
52,1436621345945,58.7233997254139
53,1436621347048,41.505356551524
54,1436621347567,63.9654372225886
55,1436621348106,57.3748454496093
56,1436621348648,49.0785542676886
57,1436621349187,59.6745325837254
58,1436621349732,40.4057221301217
59,1436621350268,70.8142294119739
60,1436621350810,43.048535928542
61,1436621351350,42.8483168328229
62,1436621351889,49.8401628463983
63,1436621352431,42.8025853256102
64,1436621352976,61.7699301103676
65,1436621354124,54.6243574798505
66,1436621354648,45.9667666377598
67,1436621355171,54.1527189417015
68,1436621355711,49.6829595081946
69,1436621356249,51.1620686796694
70,1436621356791,60.3243214785677
71,1436621357336,44.0370517350214
72,1436621357875,67.4366449253585
73,1436621359037,63.5198109193545
74,1436621359577,43.0516130962877
75,1436621360174,67.1306651475138
76,1436621360766,41.1836095620107
77,1436621361351,63.3879754248173
78,1436621361925,49.117757492742
79,1436621362449,52.0755776794353
80,1436621362986,38.4999929473972
81,1436621363528,66.5386104993752
82,1436621364051,43.9492024291839
83,1436621364592,52.8646077743161
84,1436621365136,48.4744251387418
85,1436621365680,41.1347625089215
86,1436621366204,62.1495699023962
87,1436621366748,41.8814788948121
88,1436621367288,44.5446805285936
89,1436621367830,49.803707879519
90,1436621368349,41.7831808055432
91,1436621368891,67.1167648191333
92,1436621369437,44.5707942194783
93,1436621369977,62.4899136678684
94,1436621370498,45.2014489679721
95,1436621371018,38.9877938780786
96,1436621371561,62.6801724831419
97,1436621372101,43.6429459724774
98,1436621372645,44.4373460964364
99,1436621373172,54.30894150515
100,1436621373698,40.6559903394004
101,1436621374218,68.1441780114232
102,1436621374730,50.4951340947304
103,1436621375271,40.142192963492
104,1436621375817,60.3384674688302
105,1436621376360,46.3393108705529
106,1436621376907,65.4715787427763
107,1436621377447,45.3377867260171
108,1436621377989,56.5503383655536
109,1436621378531,51.2644692079878
110,1436621379078,41.1963164820906
111,1436621379617,69.4770625837494
112,1436621380140,46.8413031736744
113,1436621380659,45.239936675549
114,1436621381199,56.9353199316361
115,1436621381722,44.3292607635548
116,1436621382260,57.2475548499948
117,1436621382779,49.0821979276296
118,1436621383317,51.9223500668167
119,1436621383836,64.6849971427888
120,1436621384377,43.0431750287403
121,1436621384898,49.0059439548336
122,1436621385442,45.5572574808431
123,1436621385982,41.9969218713575
124,1436621386504,67.3292903427531
125,1436621387047,54.6357194331037
126,1436621387589,46.2632375332802
127,1436621388128,55.8680025216581
128,1436621388669,59.8611795335285
129,1436621389210,60.7902949058418
130,1436621389752,47.5001047869422
131,1436621390289,45.7993638329699
132,1436621390827,57.1611320498096
133,1436621391347,44.8781978434668
134,1436621391886,44.0010887720306
135,1436621392427,48.8839911607676
136,1436621392946,37.3293720626315
137,1436621393486,63.0812998028517
138,1436621394026,46.1905540984494
139,1436621394566,47.5276357935459
140,1436621395105,61.0841966707355
141,1436621395647,44.7718443859222
142,1436621396200,66.4551022923404
143,1436621396740,46.5232912326643
144,1436621397280,41.7320114589497
145,1436621397821,52.6161326165908
146,1436621398339,39.4727835958642
147,1436621398878,43.0736042100538
148,1436621399419,48.018973952937
149,1436621399939,51.2052457678901
150,1436621400502,68.3824884674179
151,1436621401048,52.9597699506178
152,1436621401567,46.411170745225
153,1436621402108,49.9352843941258
154,1436621402649,51.9139781444715
155,1436621403168,47.6843832864891
156,1436621403710,47.2344102267835
157,1436621404249,44.9029697920033
158,1436621404791,64.6573499979256
159,1436621405330,46.6013055916269
160,1436621405869,43.2481784688088
161,1436621406409,57.0421116880777
162,1436621406940,44.549820249728
163,1436621407480,50.0555688546424
164,1436621408022,45.7176023417448
165,1436621408560,46.089022411658
166,1436621409106,60.5136238470985
167,1436621409646,58.0443026022409
168,1436621410198,58.4672735159757
169,1436621410737,70.2095726244501
170,1436621411277,56.8858871565332
171,1436621411795,61.8071406706921
172,1436621412335,46.5343845913631
173,1436621412877,42.1601112660525
174,1436621413398,54.155962016969
175,1436621413938,43.5896858499758
176,1436621414461,59.972863542571
177,1436621414987,57.1534922500888
178,1436621415525,39.3711733839387
179,1436621416066,63.0064539759046
180,1436621416608,52.0392121800972
181,1436621417147,48.5960421377833
182,1436621417688,54.8729781667184
183,1436621418229,46.8954037604227
184,1436621418778,68.4211144251517
185,1436621419318,48.6402063214299
186,1436621419867,43.838623748433
187,1436621420416,51.0136377194871
188,1436621420954,37.1369807163075
189,1436621421474,62.5811994778987
190,1436621422017,47.9249243805472
191,1436621422556,42.3950327027782
192,1436621423095,54.9030393381847
193,1436621423636,43.4943952222636
194,1436621424157,66.4223872505483
195,1436621424699,45.8321029027418
196,1436621425240,41.1969446150191
197,1436621425782,56.1174378055107
198,1436621426323,39.0539547698827
199,1436621426866,62.6844584922197
200,1436621427403,54.4537522329242
201,1436621427947,47.342196879123
202,1436621428488,49.9623353049282
203,1436621429028,40.1330640676977
204,1436621429569,64.9197534186655
205,1436621430110,42.492817990777
206,1436621430669,54.7573835035685
207,1436621431208,53.0918684966595
208,1436621431748,40.1486649684234
209,1436621432271,62.6912526604699
210,1436621432809,50.8941317813135
211,1436621433328,46.630100183849
212,1436621433867,67.6896521551832
213,1436621434405,57.8410936152152
214,1436621434948,58.6640667697898
215,1436621435491,62.7358512569253
216,1436621436009,69.266453019884
217,1436621436530,72.1353246385277
218,1436621437053,60.1553541004437
219,1436621437596,40.0419431164837
220,1436621438139,18.5388771595166
221,1436621438679,30.6300018996921
222,1436621439219,14.2024349633796
223,1436621439760,32.443540421089
224,1436621440311,14.1290588259904
225,1436621440847,28.8071507173041
226,1436621441405,65.4292428691061
227,1436621441947,60.9716978513032
228,1436621442460,39.0809555247514
229,1436621442985,26.6807472070296
230,1436621443505,33.5048913816866
231,1436621444049,31.256412593244
232,1436621444591,40.6935754715567
233,1436621445139,35.9071797666131
234,1436621445690,35.7965266281347
235,1436621446240,33.5929044739081
236,1436621446768,32.1560235140156
237,1436621447636,41.1138255088505
238,1436621448176,62.0702302222008
239,1436621448716,68.6993021119131
240,1436621449237,55.879877491195
241,1436621449756,40.8128610512485
242,1436621450275,44.0555646159068
243,1436621450817,36.4046461009193
244,1436621451356,39.1528164222616
245,1436621451898,39.829486615118
246,1436621452448,41.835829151963
247,1436621452992,68.0743196409075
248,1436621453508,54.8262686433372
249,1436621454049,70.4790748076753
250,1436621454569,50.8005548668797
251,1436621455112,61.7455851913242
252,1436621455655,36.5519722222818
253,1436621456201,40.3271937554493
254,1436621456745,35.9160514514456
255,1436621457975,49.5991608427048
256,1436621458497,43.40164376474
257,1436621459038,39.230778400693
258,1436621459578,41.7160816363482
259,1436621460120,29.8318951527388
260,1436621460668,31.5814280168709
261,1436621461212,33.1353376893344
262,1436621461766,36.5445348978674
263,1436621462310,46.8438628469251
264,1436621462850,50.1295506207339
265,1436621463395,41.1011338419062
266,1436621463915,40.072917435569
267,1436621464439,40.7053471226132
268,1436621464980,19.4270225742349
269,1436621465528,35.0596261057172
270,1436621466071,41.7630314236709
271,1436621466607,55.671375893044
272,1436621467149,50.965051884351
273,1436621467698,71.019522568627
274,1436621468739,40.3980290490961
275,1436621469277,36.9242213073093
276,1436621469817,29.1226371768845
277,1436621470354,39.9663801743078
278,1436621470899,30.1112130235873
279,1436621471439,36.9176983445123
280,1436621471956,24.6304284284943
281,1436621472477,26.9826376083941
282,1436621473009,28.3438229636737
283,1436621473529,22.873407533785
284,1436621474079,24.9018229040927
285,1436621474618,29.2546004832581
286,1436621475148,36.5247485924374
287,1436621475687,32.2530367196553
288,1436621476207,34.0617769025974
289,1436621476749,32.1513645996035
290,1436621477268,57.741512677629
291,1436621477788,53.9943080560893
292,1436621478326,38.6897436353528
293,1436621478844,36.2193653795377
294,1436621479366,41.2445078393412
295,1436621479909,54.4703211415395
296,1436621480448,34.4363209118662
297,1436621480989,31.8646383663642
298,1436621481509,37.8244467138281
299,1436621482048,52.4812960040699
300,1436621482588,36.7447653784514
301,1436621483133,34.7718344035724
302,1436621483678,36.2073434728376
303,1436621484217,30.5699311627307
304,1436621484757,28.4676861611467
305,1436621485299,33.5898850413082
306,1436621485841,33.3338705970726
307,1436621486359,54.7378844472685
308,1436621486879,53.0489461959935
309,1436621487400,41.4273010531886
310,1436621487936,52.7223919673427
311,1436621488475,38.4084664027362
312,1436621489015,38.1795661963667
313,1436621489535,38.3808876503244
314,1436621490077,36.3792192257161
315,1436621490615,36.7869410320162
316,1436621491157,38.3740793363869
317,1436621491695,37.178398095366
318,1436621492236,37.8426380331693
319,1436621492775,53.6064795755907
320,1436621493299,49.4265719029116
321,1436621493820,60.800350205581
322,1436621494366,46.6553865311595
323,1436621494906,46.6548883302744
324,1436621495450,44.3617575451112
325,1436621495989,45.1983737074734
326,1436621496530,41.0459557613528
327,1436621497069,43.5558266767733
328,1436621497609,39.578844964138
329,1436621498129,41.035144020801
330,1436621498650,42.4060776349394
331,1436621499168,44.3427533205264
332,1436621499709,52.3853814245508
333,1436621500250,42.7247453541279
334,1436621500787,43.084045676385
335,1436621501306,40.251532406767
336,1436621501848,41.1326578576668
337,1436621502387,42.0729098782917
338,1436621502927,40.552120694006
339,1436621503466,57.1153454933509
340,1436621504008,49.4590981610302
341,1436621504550,55.4001875648082
342,1436621505082,58.5575938485266
343,1436621505626,44.2032082959515
344,1436621506166,41.6255400325454
345,1436621506680,40.1640554976794
346,1436621507220,42.0022642210936
347,1436621507741,37.706368159961
348,1436621508279,35.1819409340294
349,1436621508818,37.3819180340649
350,1436621509359,34.8461057553444
351,1436621509900,29.8960985388384
352,1436621510442,29.6058769397047
353,1436621510988,31.7441469762138
354,1436621511538,33.8851190459348
355,1436621512087,28.2123539060825
356,1436621512606,11.5983527788402
357,1436621513129,35.3119994989274
358,1436621513670,18.1491644257779
359,1436621514191,45.7931913091963
360,1436621514737,35.1321082668996
361,1436621515255,34.1723426072232
362,1436621515797,33.436837762654
363,1436621516336,60.7892673802238
364,1436621516848,41.9912892244246
365,1436621517387,66.4794611941057
366,1436621517928,39.36504609944
367,1436621518469,38.0371509825009
368,1436621519011,63.2856142376271
369,1436621519550,45.0825656732871
370,1436621520103,33.7091830090834
371,1436621520647,38.1274502023234
372,1436621521167,31.6706283869904
373,1436621521688,45.9986900457525
374,1436621522228,26.0044906477491
375,1436621522767,39.1209095795508
376,1436621523306,31.6709959659002
377,1436621523845,56.6244766620639
378,1436621524367,62.1945421175517
379,1436621524904,46.2131045553713
380,1436621525446,21.8852424757663
381,1436621525965,41.1919326478866
382,1436621526505,28.3326808531472
383,1436621527037,40.4218181772664
384,1436621527585,33.4482734577054
385,1436621528132,57.1573556470196
386,1436621528680,31.6796176369777
387,1436621529209,42.6438802786235
388,1436621529758,66.1215025466678
389,1436621530300,69.4182270249591
390,1436621530840,57.4817143169389
391,1436621531381,57.1502222962182
392,1436621531900,59.6099178620037
393,1436621532446,28.5753080642306
394,1436621532987,29.2597153288859
395,1436621533508,34.5526380327348
396,1436621534028,44.5068989090353
397,1436621534549,47.1825418351449
398,1436621535069,45.5405246316728
399,1436621535611,42.2720110709393
400,1436621536158,37.3135853804891
401,1436621536698,64.2539731791378
402,1436621537217,57.9903278677439
403,1436621537758,33.4270143095644
404,1436621538277,44.761305844782
405,1436621538796,59.6833473172805
406,1436621539339,69.560300708691
407,1436621539880,61.749800699493
408,1436621540421,41.6071895874997
409,1436621540968,60.2954530874628
410,1436621541488,62.7506946118651
411,1436621542027,66.5903690980389
412,1436621542547,57.2787942981343
413,1436621543091,37.8784631994402
414,1436621543636,49.3510924839594
415,1436621544177,47.1252763288564
416,1436621545318,34.2734083702421
417,1436621545860,36.4641986952478
418,1436621546400,37.7974178636774
419,1436621546942,37.504860448557
420,1436621547464,36.9728935891597
421,1436621547987,34.7700048973333
422,1436621548505,34.8340820724923
423,1436621549048,28.0337483095194
424,1436621549589,26.7854012587171
425,1436621550130,25.6536310817819
426,1436621550675,27.4404991906836
427,1436621551196,24.0858092166729
428,1436621551735,29.1552335685052
429,1436621552276,29.8295721914479
430,1436621552817,26.3233353295458
431,1436621553336,24.4677128526156
432,1436621553880,28.7973813770051
433,1436621555288,23.0631409156737
434,1436621555825,25.2200937850025
435,1436621556368,27.4846978683931
436,1436621556908,30.1038348708479
437,1436621557426,25.7575135043846
438,1436621557965,27.3258481210088
439,1436621558497,25.4921708613974
440,1436621559018,33.5707068366582
441,1436621559559,27.4896304080524
442,1436621560109,29.4111261071534
443,1436621560648,30.9116175470589
444,1436621561167,30.5501120021513
445,1436621561711,32.9785919350422
446,1436621562255,30.7191564376343
447,1436621562774,32.6932125808412
448,1436621563298,34.1644497559868
449,1436621563839,33.2733060610672
450,1436621564360,31.779303305207
451,1436621564908,39.4658029050351
452,1436621565448,34.444545346824
453,1436621565988,33.7568100857616
454,1436621566529,34.9253165800963
455,1436621567069,34.0575433045616
456,1436621567607,37.1130822231946
457,1436621568128,35.2491990330461
458,1436621568669,43.3934224147264
459,1436621569211,55.0316587561351
460,1436621570390,42.8782885175886
461,1436621570910,34.0391341522178
462,1436621571455,34.0701712130547
463,1436621571995,36.5449847730341
464,1436621572516,32.6869391450121
465,1436621573059,34.376067593719
466,1436621573578,33.0214980825996
467,1436621574116,33.0809569287786
468,1436621574636,34.0961608630394
469,1436621575178,42.6412254269933
470,1436621575715,33.2875470880804
471,1436621576235,34.3394948932669
472,1436621576778,37.6950850589363
473,1436621577315,55.1195142441586
474,1436621577836,50.9885377748105
475,1436621578376,64.2136669887631
476,1436621579268,63.7392855627643
477,1436621579806,47.2917948657655
478,1436621580352,51.0260162971127
479,1436621580890,56.7018956151613
480,1436621581530,32.665683512586
481,1436621582077,38.7543274803304
482,1436621582623,38.2120413310461
483,1436621583170,36.7266714903891
484,1436621583716,58.4776017647821
485,1436621584257,27.9781544709849
486,1436621584770,32.0959953442529
487,1436621585309,64.8337323930186
488,1436621585848,41.897237706916
489,1436621586387,64.6155259991218
490,1436621586926,66.1404722503195
491,1436621587467,57.9751164784752
492,1436621588009,54.8884584759457
493,1436621588549,40.0886727487149
494,1436621589088,33.0247278882371
495,1436621589627,47.5343886133588
496,1436621590167,30.5828163982227
497,1436621590688,39.6415324129948
498,1436621591235,20.6947523469039
499,1436621591775,21.0954612867644
500,1436621592317,32.57426923674
501,1436621592858,0.700067129865352
502,1436621593386,32.9864367198994
503,1436621593925,46.046854334587
504,1436621594470,22.1280643072623
505,1436621595009,19.7062616448398
506,1436621595527,32.4711113960018
507,1436621596072,19.3741369310393
508,1436621596611,31.4839114396618
509,1436621597148,10.3740115611767
510,1436621597690,0.569986774294979
511,1436621598215,27.3544500748899
512,1436621598757,8.80207917445305
513,1436621599997,11.5241155030332
514,1436621600536,27.7831992844781
515,1436621601056,0.416120513402239
516,1436621601598,0.115663041712107
517,1436621602116,4.15001135576715
518,1436621603727,9.2343021547066
519,1436621604265,3.38918072757707
520,1436621604806,1.67956970303158
521,1436621605344,31.7357956575464
522,1436621605865,1.59455215995841
523,1436621606387,10.5478776675861
524,1436621607437,0.202959149761108
525,1436621607989,31.7291221039249
526,1436621608555,3.29603356532361
527,1436621609105,6.74910973905034
528,1436621610738,13.5055108632992
529,1436621611277,12.1764940223067
530,1436621611796,6.48164200997648
531,1436621612339,8.53344717657223
532,1436621612878,0.387119185497583
533,1436621613956,3.5998053453347
534,1436621614500,23.732416923315
535,1436621615049,0.7790303067652
536,1436621615568,28.3072594166599
537,1436621616087,0.33557072774137
538,1436621616626,14.8198051701388
539,1436621617166,0.7790303067652
540,1436621617705,0.7790303067652
541,1436621618249,2.13176417954372
542,1436621618775,0.33557072774137
543,1436621619319,1.68593532415788
544,1436621619867,21.0039423299086
545,1436621620411,1.79874067121173
546,1436621621596,4.79732716237947
547,1436621622136,28.6744295444158
548,1436621622676,23.3358153060838
549,1436621623196,14.3136478551053
550,1436621623736,13.0505924722343
551,1436621624279,42.6951706856439
552,1436621624820,2.78991626002821
553,1436621625362,17.8804803607726
554,1436621625900,1.55194285381829
555,1436621626420,2.63826739002648
556,1436621626960,26.4803269493528
557,1436621627480,43.1095330202826
558,1436621628024,52.061487899679
559,1436621628570,51.853608594285
560,1436621629095,26.4340785890449
561,1436621629636,12.3349214493871
562,1436621630176,5.61320858296197
563,1436621630718,28.9461736150631
564,1436621631259,10.5439925000331
565,1436621631799,22.3210985548469
566,1436621632327,38.1765778658925
567,1436621632887,7.56446422186437
568,1436621633429,28.5389321767279
569,1436621633946,0.631808313837817
570,1436621634488,9.64997427317244
571,1436621635029,10.9589228270101
572,1436621635549,1.7865840707136
573,1436621636090,12.7128061006901
574,1436621636629,0.360352170052341
575,1436621637148,3.65923013565002
