id,attr_time,attr_db
1,1436621318728,48.1473107337717
2,1436621319545,47.4170576440546
3,1436621320272,42.576757367901
4,1436621320918,40.9849319265946
5,1436621321658,42.865063464517
6,1436621322382,38.5196556425044
7,1436621323123,39.0677209894344
8,1436621323867,36.7251447853927
9,1436621324613,42.0164604508204
10,1436621325351,41.1479601773233
11,1436621326067,52.6540911667816
12,1436621326823,60.446220075231
13,1436621327569,63.5061694249594
14,1436621328359,59.3505554517926
15,1436621329087,62.8578290195389
16,1436621329829,62.3615795091408
17,1436621330581,64.3316130807262
18,1436621331311,57.0345012581664
19,1436621331988,56.1431574289928
20,1436621332630,61.893720609708
21,1436621333332,66.6814612782133
22,1436621334071,68.4948510636586
23,1436621334801,62.9442745379411
24,1436621335510,53.5093541278778
25,1436621336204,56.1227178928859
26,1436621336881,58.4980974074384
27,1436621337628,57.5506301671407
28,1436621338364,61.3457315272743
29,1436621339124,63.0333625400019
30,1436621339858,63.9176706275194
31,1436621340602,62.7655964455235
32,1436621341340,61.9038221191736
33,1436621342064,56.3643526756937
34,1436621342790,58.5815367821498
35,1436621343488,57.7747767651437
36,1436621344203,63.3477267667917
37,1436621344935,62.2910524431609
38,1436621345660,64.3123754580197
39,1436621346392,66.331585995762
40,1436621347134,61.9580854563089
41,1436621347894,69.2493354881495
42,1436621348735,68.838655798394
43,1436621349453,68.0814413825848
44,1436621350204,69.8501749096791
45,1436621350930,57.6643656816132
46,1436621351682,53.6795046084015
47,1436621352368,53.3232666865566
48,1436621353116,59.0356623279298
49,1436621353817,56.684802134431
50,1436621354501,57.5113125204532
51,1436621355224,57.5272897127081
52,1436621355953,63.8792219346286
53,1436621356686,64.3858896640796
54,1436621357440,64.3825539155671
55,1436621358188,64.5980502079875
56,1436621358770,49.9651120987911
57,1436621359464,57.5322783234595
58,1436621360186,58.164180324392
59,1436621360898,58.040788541286
60,1436621361627,64.8957122658939
61,1436621362345,67.9547142375751
62,1436621363081,69.1073873990784
63,1436621363772,63.0404487519681
64,1436621364397,52.2665655578041
65,1436621365085,59.2287669724821
66,1436621365826,62.9653843793315
67,1436621366563,65.2881706069576
68,1436621367296,65.9868863839571
69,1436621368032,66.6768194960986
70,1436621368885,68.3616439243079
71,1436621369622,68.6832465987649
72,1436621370364,64.2414721541503
73,1436621371083,62.9525028397269
74,1436621371827,60.0531653506625
75,1436621372500,56.6379642766922
76,1436621373246,62.0301321784897
77,1436621374097,55.879832719071
78,1436621374767,53.0103609953854
79,1436621375450,57.3563006160015
80,1436621376174,61.8181165496276
81,1436621376905,67.6880193783168
82,1436621377666,68.4145350854471
83,1436621378483,58.3720615390481
84,1436621379217,63.1566524895745
85,1436621379915,68.1321170604793
86,1436621380660,62.439253295658
87,1436621381408,53.8597520171984
88,1436621382147,55.148899367512
89,1436621382890,51.0347112832934
90,1436621383617,54.5463707007889
91,1436621384345,51.6259391392001
92,1436621385066,56.2928026371185
93,1436621385770,62.2322033550289
94,1436621386460,64.557954522497
95,1436621387198,57.4964968257607
96,1436621387960,48.5778605070602
97,1436621388703,60.6398807895217
98,1436621389433,49.2442460430964
99,1436621390176,51.3153237869006
100,1436621390886,55.0170635676733
101,1436621391629,52.5076606350171
102,1436621392338,58.7979407633143
103,1436621393013,66.3015860993786
104,1436621393746,55.2312895833547
105,1436621394476,49.7662652862133
106,1436621395165,49.5791365037007
107,1436621395826,58.7609608342962
108,1436621396565,66.8289176639149
109,1436621397319,64.6073484525605
110,1436621398036,53.5022653968712
111,1436621398774,48.958476955412
112,1436621399504,51.9668059281452
113,1436621400188,55.213618741731
114,1436621400818,67.5188552314512
115,1436621401525,54.8277107348892
116,1436621402293,50.4017583633876
117,1436621403039,55.8981167484553
118,1436621403795,53.3573108575132
119,1436621404476,58.0073968136259
120,1436621405133,64.2393039160388
121,1436621405827,57.3094489516577
122,1436621406519,55.7550258218556
123,1436621407217,51.5307287820857
124,1436621407855,65.9093282078971
125,1436621408536,57.4656849230344
126,1436621409295,62.5228730618766
127,1436621410025,71.8465024999194
128,1436621410775,56.9159783372096
129,1436621411527,55.4590865182877
130,1436621412284,50.4734708018166
131,1436621412989,58.4727534260418
132,1436621413710,65.6206809200568
133,1436621414468,66.4777685109303
134,1436621415172,55.3973295464929
135,1436621416700,55.6016272364333
136,1436621417431,55.6067620489949
137,1436621418173,59.5097318655647
138,1436621418918,53.579848705703
139,1436621419667,50.3994028464751
140,1436621420307,62.2327776074662
141,1436621421008,63.4885154436582
142,1436621421737,51.8431783864977
143,1436621422463,49.011823100709
144,1436621423218,47.8628123438834
145,1436621423975,49.1603871426518
146,1436621424665,52.6499233809854
147,1436621425384,58.9899703311117
148,1436621426024,58.1541724882067
149,1436621427497,56.0644677650171
150,1436621428218,62.614066018797
151,1436621428938,54.8008282233622
152,1436621429710,56.5627195669262
153,1436621430363,59.5638736712969
154,1436621431064,67.9237887721506
155,1436621431786,65.3252888495523
156,1436621432515,48.458128253119
157,1436621433235,55.1539032726272
158,1436621433953,54.9808984883231
159,1436621434680,60.3060827512574
160,1436621435534,52.2026105611068
161,1436621436216,51.7317518195896
162,1436621436864,68.0678389063311
163,1436621437572,52.4444281845731
164,1436621438317,14.6057075202996
165,1436621439052,24.1599435224455
166,1436621439844,33.8943168842359
167,1436621440466,65.3727247582651
168,1436621442293,41.5823787858439
169,1436621442948,45.1105133160121
170,1436621443615,44.6201469996763
171,1436621444291,39.8630996922972
172,1436621445006,35.3660515891089
173,1436621445738,35.6982596278047
174,1436621446467,63.7625298309852
175,1436621447218,62.3978097687893
176,1436621448001,70.6926372636724
177,1436621448692,31.0824995925614
178,1436621449313,22.3673482338498
179,1436621449926,33.7789284016404
180,1436621450980,27.635558187921
181,1436621451714,23.0910925706489
182,1436621452447,34.4897202327405
183,1436621453188,25.9877769020472
184,1436621453914,55.8645235522655
185,1436621454630,30.0728100116656
186,1436621455294,36.6056940284743
187,1436621455949,31.0198665181827
188,1436621456710,55.6732880853623
189,1436621457381,44.1441114135481
190,1436621458071,33.8088729337122
191,1436621458810,39.48190400112
192,1436621459548,28.3729337488975
193,1436621460286,30.4192382544008
194,1436621461015,36.390943192203
195,1436621461770,38.3391902918712
196,1436621462495,27.7535332178435
197,1436621463223,18.2043061561299
198,1436621463965,14.5000500405941
199,1436621464713,17.2547671180464
200,1436621465452,26.3134235606475
201,1436621466183,36.1833529694
202,1436621466974,27.1032549092631
203,1436621467706,28.3420827664839
204,1436621468415,25.7682453169429
205,1436621469158,19.8614274174246
206,1436621469933,42.0800398142284
207,1436621470660,30.0594890788652
208,1436621471387,16.4643764661007
209,1436621472162,20.7156243035847
210,1436621472933,15.8253879592027
211,1436621473579,16.5280752081916
212,1436621474310,17.0289565064803
213,1436621475055,21.4086303150328
214,1436621475811,15.2297619935962
215,1436621476553,55.8182212332742
216,1436621477269,42.6548325888645
217,1436621477991,34.5328110612298
218,1436621478740,18.5005230663342
219,1436621479473,19.1944494217309
220,1436621480203,17.8577548683786
221,1436621480950,18.0416081579071
222,1436621481694,28.4447093267849
223,1436621482421,19.0021222621409
224,1436621483162,18.0093928306184
225,1436621483946,21.104422527693
226,1436621484676,21.4699194888734
227,1436621485422,46.0222121794343
228,1436621486143,35.2788074450862
229,1436621486884,47.3796701980257
230,1436621487636,29.5738340590683
231,1436621488396,32.99808555976
232,1436621489166,33.7041873136293
233,1436621489874,31.3697221708838
234,1436621490619,32.3466636309312
235,1436621491442,33.6022329394576
236,1436621492180,44.187702321878
237,1436621492818,46.0617564421167
238,1436621493503,36.5028668737018
239,1436621494274,33.0274108305108
240,1436621495001,43.2174582706344
241,1436621495714,34.1024994406707
242,1436621496435,34.4628917985472
243,1436621497171,35.576476946131
244,1436621497915,36.4343664385004
245,1436621498655,36.3006011154999
246,1436621499449,38.955493645439
247,1436621500172,37.0275449049126
248,1436621500930,37.2257154511154
249,1436621501666,37.2775691773364
250,1436621502393,46.3167126729735
251,1436621503411,36.799141377141
252,1436621504124,59.4355093198325
253,1436621504841,35.0459063349792
254,1436621505571,31.3591101575563
255,1436621506330,28.2475244217666
256,1436621507039,32.4202259914415
257,1436621507752,26.9466714460868
258,1436621508516,26.3823059324296
259,1436621509205,22.1016754659053
260,1436621509793,27.3233283394167
261,1436621510466,24.8628456118049
262,1436621511196,23.8487027416272
263,1436621511941,24.8510217246257
264,1436621512664,26.0063866124841
265,1436621513270,20.0172494618458
266,1436621514013,23.7376686460649
267,1436621514737,33.0537458175723
268,1436621515459,55.8191273518016
269,1436621516182,35.4849479902291
270,1436621516839,60.8230832164889
271,1436621517592,33.8299821189256
272,1436621518324,41.8640460296711
273,1436621519061,24.8371345865294
274,1436621519796,23.4191700273342
275,1436621520527,21.7177391424933
276,1436621521274,21.2911852048551
277,1436621522011,22.3753096867915
278,1436621522744,23.5209181666275
279,1436621523432,51.7559500899867
280,1436621524123,35.9812269988898
281,1436621524847,20.6390200342556
282,1436621525544,20.7948413181435
283,1436621526296,29.5392697931656
284,1436621527031,19.1271419977126
285,1436621527781,27.2311649318292
286,1436621528511,64.7948086388809
287,1436621529238,63.38437554187
288,1436621529917,52.4735279490807
289,1436621530629,45.5765007098213
290,1436621531350,60.2637363009344
291,1436621532064,29.7948766267115
292,1436621532874,52.3705016072619
293,1436621533601,23.9376231489642
294,1436621534280,24.8267523598897
295,1436621535000,21.0373197468627
296,1436621535728,61.7610798532034
297,1436621536451,50.3347398026376
298,1436621537176,32.8834687720587
299,1436621537894,56.2245321392144
300,1436621538654,62.2476410016351
301,1436621539402,39.3679346661815
302,1436621540135,54.0471431742621
303,1436621540869,54.9804208711847
304,1436621541587,63.7829335970592
305,1436621542350,30.7372492227277
306,1436621543084,27.2053876431705
307,1436621543740,20.906840868678
308,1436621544437,22.5574393872447
309,1436621545171,31.2436525877185
310,1436621545904,23.008125534207
311,1436621546633,34.6645415147657
312,1436621547284,22.7576396101477
313,1436621548012,20.6535454723058
314,1436621548749,17.4465914077757
315,1436621549465,19.5687997734113
316,1436621550140,18.8690893893033
317,1436621550839,17.5871272880255
318,1436621551577,19.4034001279544
319,1436621552316,17.4703839511577
320,1436621553047,18.7053015956738
321,1436621553773,18.5860114315997
322,1436621554429,16.0454598188279
323,1436621555139,19.4078235399353
324,1436621555864,17.6502036946198
325,1436621556587,16.1147952380879
326,1436621557343,19.3539866706352
327,1436621558069,19.7093071984903
328,1436621558780,18.2380294844448
329,1436621559527,20.6259632513215
330,1436621560201,21.284737377817
331,1436621560937,23.1942815745592
332,1436621561663,22.1403391185424
333,1436621562394,24.8651860203263
334,1436621563107,22.2165081702661
335,1436621563846,24.4870838388145
336,1436621564552,24.367843002959
337,1436621565206,25.3824939400567
338,1436621565941,24.4178141494265
339,1436621566673,23.7473086333993
340,1436621567427,24.412147365577
341,1436621568162,25.9024621917159
342,1436621568942,23.0871955006873
343,1436621569673,23.9945203261967
344,1436621570474,22.9889611273727
345,1436621571202,21.2139208019275
346,1436621571922,23.1967332469678
347,1436621572662,22.3399880332225
348,1436621573375,22.5392439018292
349,1436621574104,29.638498688948
350,1436621574909,22.9842779383806
351,1436621575600,23.4378839620355
352,1436621576326,26.5190272169046
353,1436621577058,24.6696910332754
354,1436621577793,57.1816443009958
355,1436621578558,44.6088904391354
356,1436621579255,21.4053220684294
357,1436621579910,22.5878221807968
358,1436621580637,21.7321972103306
359,1436621581372,22.9441185106019
360,1436621582104,31.8679972168025
361,1436621582840,22.1738467620522
362,1436621583582,19.1617469596396
363,1436621584318,24.0906421943372
364,1436621585154,59.6028797765808
365,1436621585896,63.1142808761058
366,1436621586647,54.7234837356708
367,1436621587407,46.6813920838853
368,1436621588150,64.5060495657092
369,1436621588886,60.1763293905649
370,1436621589612,54.7448664744826
371,1436621590341,54.7973445526714
372,1436621591063,34.0534223737355
373,1436621591800,57.7162971344112
374,1436621592511,41.5010047070648
375,1436621593236,60.2209248367456
376,1436621593923,38.3034641536687
377,1436621594523,34.1549079065562
378,1436621595234,46.6137182315735
379,1436621595964,37.8511938268015
380,1436621596702,24.4347239301604
381,1436621597448,24.8579090270697
382,1436621598074,22.1215898800028
383,1436621598757,21.575787696378
384,1436621599484,20.5508909390959
385,1436621600244,20.7700320302368
386,1436621600962,25.2972986479298
387,1436621601698,29.1482934854383
388,1436621602437,22.5860263220931
389,1436621603111,22.1723148149332
390,1436621603836,23.7217652520685
391,1436621604562,26.1555692301953
392,1436621605306,22.0080838105688
393,1436621606031,25.2148718296543
394,1436621606754,24.5705286472398
395,1436621607477,19.9568977719444
396,1436621608137,25.4869248951001
397,1436621608853,19.5941357994051
398,1436621609503,23.9848368790592
399,1436621610251,17.0976298653789
400,1436621610988,20.6735309412242
401,1436621611736,18.6904714296488
402,1436621612463,17.2748014797234
403,1436621613198,23.7648676046267
404,1436621613930,19.9736480215942
405,1436621614616,28.4957400678336
406,1436621615278,21.5190083098986
407,1436621616005,23.4591170768942
408,1436621616736,21.1100741324294
409,1436621617455,23.3024134820996
410,1436621618184,21.476985691181
411,1436621618908,23.075069249245
412,1436621620872,53.2960259446514
413,1436621621596,59.8972758123576
414,1436621622336,52.9756432964249
415,1436621623072,47.6724845585874
416,1436621623867,28.4250274919983
417,1436621624597,22.4242094446862
418,1436621625278,27.0429943988155
419,1436621625873,20.8002556176101
420,1436621626544,58.4285938236787
421,1436621627286,59.9458756384584
422,1436621628006,62.339527673447
423,1436621628743,45.8184547829594
424,1436621629550,32.5241189430529
425,1436621630234,44.2739440949099
426,1436621630968,36.4683583339624
427,1436621631704,30.1066127147252
428,1436621632434,22.1387791735433
429,1436621633159,38.3000284269322
430,1436621633963,20.1131859592376
431,1436621635743,21.4583281802038
432,1436621636445,19.9046831655795
433,1436621637141,20.2185461852514
434,1436621637885,32.731302733702
435,1436621638597,35.3132189032638
436,1436621639322,18.913515739706
437,1436621640041,18.4585688426028
438,1436621640818,18.5195144260884
439,1436621641535,17.6683059882092
440,1436621642244,32.2041722575681
441,1436621642965,27.3012137473491
442,1436621643713,49.2860358205663
443,1436621644423,45.2501146653495
444,1436621645177,43.0698203330007
445,1436621645899,47.7938077929502
446,1436621646633,56.3880890362975
447,1436621647352,57.2484517466764
448,1436621648105,58.8810405064848
449,1436621648880,55.5254819698385
450,1436621649489,52.7054733030705
451,1436621650208,50.1487333718211
452,1436621650960,54.5357752233256
453,1436621651696,56.7140224167138
454,1436621652449,53.5462494954584
455,1436621653141,53.4769669049023
456,1436621653859,54.3914044205619
457,1436621654676,54.5363160410853
458,1436621655394,51.5116604026697
459,1436621656085,56.2854402938908
460,1436621656743,45.0146078317401
461,1436621658448,54.5783535575703
462,1436621659225,57.932048499386
463,1436621659965,56.3622031678954
464,1436621660644,45.6051672860948
465,1436621661331,48.2664789503638
466,1436621661998,60.9045471793136
467,1436621662739,63.1024961722985
468,1436621663465,62.2954847034731
469,1436621664194,63.0663850245493
470,1436621664923,49.4904014275862
471,1436621665664,44.697988969173
472,1436621666421,52.2936156437973
473,1436621667094,65.7538209519591
474,1436621667834,64.0011738623651
475,1436621668548,52.3177607264248
476,1436621669296,56.7838576373746
477,1436621670011,69.2585825246757
478,1436621671740,62.2724046694762
479,1436621672464,67.7773447344439
480,1436621673196,63.2444901391141
481,1436621673921,53.8142685071177
482,1436621674654,62.9925530361032
483,1436621675408,58.8621321060057
484,1436621676140,54.3811633370355
485,1436621676795,58.4514873539288
486,1436621677492,65.7398678098726
487,1436621678242,66.2804342420117
488,1436621678968,56.7061153524049
489,1436621679775,67.8848133696358
490,1436621680516,65.3505726232002
491,1436621681184,56.3593282222424
492,1436621681917,49.9719270988595
493,1436621682674,52.4941355753508
494,1436621683417,56.5760524365043
495,1436621684222,53.3833704711599
496,1436621684947,53.4447530610925
497,1436621685728,50.680481776807
498,1436621686482,49.9347426378794
499,1436621687238,53.4593488301545
500,1436621687963,56.4243998217314
501,1436621688717,65.3507246887206
502,1436621689453,58.5600448260292
503,1436621690189,69.4941214323076
504,1436621690894,69.6352235689614
505,1436621691558,53.4788615941493
506,1436621692235,59.68586504642
507,1436621692868,55.5637784968929
508,1436621693551,64.899533306905
509,1436621694363,65.3691375880872
510,1436621695108,71.0972197581022
511,1436621695842,63.3778916182367
512,1436621696554,69.103639932373
513,1436621697224,55.3910240871646
514,1436621697971,55.1487680945288
515,1436621698693,47.5541297445743
516,1436621699487,54.8964547722042
517,1436621700245,52.7418459256131
518,1436621701007,48.5178874998553
519,1436621701712,51.8014850318218
520,1436621702442,56.5030236633292
521,1436621703180,55.5481827843089
522,1436621703916,61.5745011032942
523,1436621704656,70.0578350299559
524,1436621705403,68.4871894210506
525,1436621706144,63.0094505522633
526,1436621706879,69.8769188110779
527,1436621707666,66.7777278670959
528,1436621708452,64.5437822344763
529,1436621709123,65.9054463309033
530,1436621709852,60.6361784682779
531,1436621710599,59.1650357058339
532,1436621711319,56.3234260785423
533,1436621712044,51.2163865646931
534,1436621712711,56.0177069346935
535,1436621713384,55.1974047394248
536,1436621714117,51.4829084685466
537,1436621714830,58.5478747180314
538,1436621715571,59.3580629076983
539,1436621716346,55.8089068557508
540,1436621717032,68.3209467968582
541,1436621717681,58.2476229953367
542,1436621718366,46.764496954266
543,1436621719171,52.782638329178
544,1436621719912,49.3199135313223
545,1436621720650,46.1222043228887
546,1436621721387,44.7308798619568
547,1436621722118,46.026559582417
548,1436621722828,49.8810100281743
549,1436621723504,52.9987256868561
550,1436621724157,62.4555933024043
551,1436621724856,51.2151588033032
552,1436621725586,54.4711283509957
553,1436621726339,50.3938041725873
554,1436621727056,64.256434169948
555,1436621727819,55.2107546628645
556,1436621728603,57.1878981921839
557,1436621729375,61.316309213057
558,1436621730094,56.8825327352674
559,1436621730804,57.1229079343663
560,1436621731573,59.7875911907824
561,1436621732334,54.3390159047117
562,1436621732985,56.0951426021845
563,1436621733713,60.442770575016
564,1436621734525,60.1956808741274
565,1436621735243,59.2732302348653
566,1436621735972,55.9189185211871
567,1436621736704,55.6003070893798
568,1436621737485,54.0153154557186
569,1436621738165,61.5613731260227
570,1436621738885,61.8313596518293
571,1436621739602,61.2618393091313
572,1436621740324,65.506407603376
573,1436621741066,64.3126267970774
574,1436621741795,62.8967662596306
575,1436621742537,59.1946601231411
